Wall time,Step,Value
1741002443.3096552,0,0.047385793179273605
1741002444.7716622,1,0.026143472641706467
1741002444.8276742,2,0.014837032184004784
1741002444.886065,3,0.00946684181690216
1741002444.9424827,4,0.008189219050109386
1741002444.999315,5,0.006204398814588785
1741002445.1073136,6,0.006647974252700806
1741002445.1877215,7,0.004872962366789579
1741002445.2462456,8,0.003429022617638111
1741002445.3006546,9,0.0031481145415455103
1741002445.3557796,10,0.0032239817082881927
1741002446.181678,11,0.0018490062793716788
1741002446.239188,12,0.002328176749870181
1741002446.294256,13,0.0016858369344845414
1741002446.351342,14,0.0011398934293538332
1741002446.406319,15,0.0025160249788314104
1741002446.4625256,16,0.0029647150076925755
1741002446.5174909,17,0.0018229946726933122
1741002446.5712948,18,0.0017832709709182382
1741002446.6264105,19,0.0020101028494536877
1741002446.6817155,20,0.0019263505237177014
1741002447.318907,21,0.0028445282950997353
1741002447.3749437,22,0.00194836116861552
1741002447.4294639,23,0.0023245932534337044
1741002447.484475,24,0.005308781284838915
1741002447.5405612,25,0.0060792225413024426
1741002447.594407,26,0.00794181413948536
1741002447.6503856,27,0.005103414878249168
1741002447.7049258,28,0.0044107139110565186
1741002447.7603157,29,0.0030648987740278244
1741002447.8171275,30,0.003922019619494677
1741002448.4430892,31,0.0014307841192930937
1741002448.4979532,32,0.003164915833622217
1741002448.5542405,33,0.001168364891782403
1741002448.6096244,34,0.000992280663922429
1741002448.6660082,35,0.0008791817817837
1741002448.7210758,36,0.0005331630818545818
1741002448.7777503,37,0.000865744601469487
1741002448.8329997,38,0.00045859182137064636
1741002448.890825,39,0.0002098268741974607
1741002448.9471836,40,0.00031720183324068785
1741002449.5646436,41,0.00020089633471798152
1741002449.6214273,42,0.0002581151493359357
1741002449.675279,43,0.00011834061297122389
1741002449.7292023,44,0.00018490690854378045
1741002449.784657,45,0.00012268853606656194
1741002449.8409688,46,0.00014812139852438122
1741002449.8959985,47,9.586276428308338e-05
1741002449.9521134,48,0.00010346910130465403
1741002450.0067103,49,6.832244980614632e-05
1741002450.0614386,50,8.277292363345623e-05
1741002450.8104246,51,4.259203706169501e-05
1741002450.8650622,52,0.00014143783482722938
1741002450.9199176,53,6.721220415784046e-05
1741002450.9763968,54,5.978118133498356e-05
1741002451.0307531,55,4.943132444168441e-05
1741002451.0870857,56,4.4423999497666955e-05
1741002451.1413562,57,4.237828397890553e-05
1741002451.2112675,58,3.9580423617735505e-05
1741002451.2660992,59,4.948308924213052e-05
1741002451.323134,60,4.8902773414738476e-05
1741002452.2240238,61,6.136497540865093e-05
1741002452.2814167,62,2.433701592963189e-05
1741002452.4152706,63,5.1876966608688235e-05
1741002452.5794146,64,5.9018773754360154e-05
1741002452.756372,65,2.798627429001499e-05
1741002452.9194698,66,6.293686601566151e-05
1741002453.0893059,67,7.254663796629757e-05
1741002453.2613633,68,3.285333150415681e-05
1741002453.425602,69,2.8068719984730706e-05
1741002453.5957668,70,5.79310544708278e-05
1741002454.6355193,71,0.00016100106586236507
1741002454.8065255,72,3.1033017876325175e-05
1741002454.9802754,73,0.00011302868369966745
1741002455.1387022,74,7.153977639973164e-05
1741002455.3107007,75,8.232041000155732e-05
1741002455.4789932,76,5.7681285397848114e-05
1741002455.6484091,77,5.997845801175572e-05
1741002455.8229387,78,5.0083701353287324e-05
1741002455.9941542,79,2.5688284949865192e-05
1741002456.155397,80,9.611718996893615e-05
1741002457.1714609,81,3.258845754317008e-05
1741002457.345825,82,3.066507269977592e-05
1741002457.510227,83,2.5609635486034676e-05
1741002457.6845975,84,4.293612437322736e-05
1741002457.8522527,85,3.8626585592282936e-05
1741002458.0026035,86,3.911321982741356e-05
1741002458.167353,87,3.261920210206881e-05
1741002458.3253305,88,2.290003794769291e-05
1741002458.4918716,89,2.3105134459910914e-05
1741002458.6611545,90,2.5637367798481137e-05
1741002459.6641102,91,4.4010801502736285e-05
1741002459.8277268,92,7.154385093599558e-05
1741002460.0037029,93,2.7541123927221633e-05
1741002460.1023927,94,4.646934030461125e-05
1741002460.1658359,95,0.00011075953079853207
1741002460.2237904,96,6.087125075282529e-05
1741002460.2795146,97,3.910080704372376e-05
1741002460.3350012,98,6.171986024128273e-05
1741002460.3916516,99,3.253658360335976e-05
1741002460.4489498,100,7.955470209708437e-05
1741002461.3942645,101,2.4231512725236826e-05
1741002461.451715,102,4.980971789336763e-05
1741002461.5115685,103,3.567247404134832e-05
1741002461.5695448,104,2.087674329231959e-05
1741002461.6275039,105,1.782173421815969e-05
1741002461.6854486,106,3.980480687459931e-05
1741002461.7422352,107,6.725812272634357e-05
1741002461.8004086,108,1.8303484466741793e-05
1741002461.8580472,109,2.2276793970377184e-05
1741002461.9161506,110,1.4808315427217167e-05
1741002463.215676,111,1.9693981812451966e-05
1741002463.351048,112,4.021170025225729e-05
1741002463.4936407,113,2.387378117418848e-05
1741002463.610811,114,1.5771160178701393e-05
1741002463.7570755,115,2.2871638066135347e-05
1741002463.894606,116,2.5599794753361493e-05
1741002463.9595342,117,6.03350781602785e-05
1741002464.0158834,118,2.5609528165659867e-05
1741002464.0716975,119,1.644198528083507e-05
1741002464.1263595,120,3.352422208990902e-05
1741002464.8980176,121,1.6294723536702804e-05
1741002465.0706635,122,9.919385047396645e-05
1741002465.2552981,123,1.3223850146459881e-05
1741002465.430668,124,2.1961746824672446e-05
1741002465.6072254,125,1.7374664821545593e-05
1741002465.6727817,126,2.9553984859376214e-05
1741002465.733126,127,5.435825733002275e-05
1741002465.7919655,128,1.9523360606399365e-05
1741002465.852523,129,1.409607648383826e-05
1741002465.946877,130,1.187171528727049e-05
1741002466.9832125,131,2.1537494831136428e-05
1741002467.1454504,132,6.455214315792546e-05
1741002467.2232375,133,2.079118712572381e-05
1741002467.28197,134,1.765861816238612e-05
1741002467.4128032,135,4.915537283523008e-05
1741002467.549695,136,4.916738180327229e-05
1741002467.6551895,137,6.664884858764708e-05
1741002467.7735255,138,2.462748670950532e-05
1741002467.8529294,139,9.975464308809023e-06
1741002467.9851446,140,3.863223173539154e-05
1741002468.8645852,141,3.419244603719562e-05
1741002468.9248476,142,1.3411436157184653e-05
1741002469.0007634,143,3.235771509935148e-05
1741002469.0611413,144,3.533731069182977e-05
1741002469.1191995,145,1.2486378182074986e-05
1741002469.1762645,146,1.8280785297974944e-05
1741002469.2327316,147,1.676734973443672e-05
1741002469.2898984,148,1.574188718223013e-05
1741002469.3472126,149,1.3192753613111563e-05
1741002469.4055982,150,1.9896067897207104e-05
1741002470.01079,151,2.7957066777162254e-05
1741002470.066539,152,1.3851302355760708e-05
1741002470.1243474,153,1.2219416021252982e-05
1741002470.1825318,154,2.567093906691298e-05
1741002470.2404368,155,3.291481334599666e-05
1741002470.298388,156,1.8210152120445855e-05
1741002470.3559756,157,1.0870814548979979e-05
1741002470.4129767,158,3.123073111055419e-05
1741002470.4709473,159,1.4694009223603643e-05
1741002470.5282333,160,2.5214647394022904e-05
1741002471.2806587,161,3.897420538123697e-05
1741002471.4649637,162,7.4006165959872305e-06
1741002471.6495395,163,1.8837610696209595e-05
1741002471.8322701,164,1.2234889254614245e-05
1741002471.9957747,165,3.428706622798927e-05
1741002472.1685321,166,2.8677550290012732e-05
1741002472.3357134,167,9.217434126185253e-06
1741002472.5141902,168,0.00010879213368752971
1741002472.683053,169,6.0143038353999145e-06
1741002472.7717998,170,2.062776002276223e-05
1741002473.6259542,171,3.4998247429030016e-05
1741002473.8068595,172,2.5454168280703016e-05
1741002473.9658463,173,1.4321185517474078e-05
1741002474.1392097,174,2.5229990569641814e-05
1741002474.3148425,175,2.2189124138094485e-05
1741002474.484294,176,2.7061520086135715e-05
1741002474.670485,177,1.9083239749306813e-05
1741002474.8422701,178,6.127734377514571e-05
1741002475.0179403,179,1.1374278074072208e-05
1741002475.1897,180,1.614600114407949e-05
1741002475.9464843,181,3.861989171127789e-05
1741002476.0091786,182,2.0719504391308874e-05
1741002476.0690722,183,4.458113107830286e-05
1741002476.1277661,184,3.167431350448169e-05
1741002476.1852076,185,2.1176696463953704e-05
1741002476.2560527,186,1.1590621397772338e-05
1741002476.3157294,187,1.1867276953125838e-05
1741002476.377922,188,2.0159464838798158e-05
1741002476.4359071,189,8.22635593067389e-06
1741002476.497431,190,1.9576751583372243e-05
1741002477.4908617,191,3.564608050510287e-05
1741002477.6625009,192,1.877270005934406e-05
1741002477.8523376,193,1.5261624866980128e-05
1741002478.0306575,194,1.2124007298552897e-05
1741002478.2217937,195,1.0593228580546565e-05
1741002478.3672361,196,1.0328361895517446e-05
1741002478.491943,197,1.3213421880209353e-05
1741002478.6235466,198,6.681416834908305e-06
1741002478.6908646,199,9.107463483815081e-06
1741002478.7509265,200,1.6467069144709967e-05
1741002479.6015532,201,1.6879444956430234e-05
1741002479.795663,202,1.4147464753477834e-05
1741002479.985361,203,2.7326601411914453e-05
1741002480.132382,204,1.1897323020093609e-05
1741002480.316032,205,3.0186767617124133e-05
1741002480.4970849,206,2.1004749214625917e-05
1741002480.6700594,207,2.7081525331595913e-05
1741002480.8604217,208,1.6323800082318485e-05
1741002481.00334,209,1.3254014447738882e-05
1741002481.0705383,210,7.396878118015593e-06
1741002482.245,211,1.76829234987963e-05
1741002482.430516,212,3.063881740672514e-05
1741002482.6160464,213,1.1709634236467537e-05
1741002482.7929952,214,3.570195258362219e-05
1741002482.9481516,215,1.8447886759531684e-05
1741002483.078167,216,1.3302662409842014e-05
1741002483.1446228,217,2.228288030892145e-05
1741002483.206315,218,1.5053744391479995e-05
1741002483.2636278,219,1.021493153530173e-05
1741002483.3224654,220,8.254433487309143e-05
1741002484.103815,221,2.4651024432387203e-05
1741002484.182953,222,2.0413548554643057e-05
1741002484.2405465,223,1.0257887879561167e-05
1741002484.2980237,224,1.2307868018979207e-05
1741002484.3560517,225,5.8851883295574225e-06
1741002484.413628,226,1.9656483345897868e-05
1741002484.470695,227,8.376347068406176e-06
1741002484.5286856,228,1.7659447621554136e-05
1741002484.585328,229,9.928777217282914e-06
1741002484.6400115,230,1.5810377590241842e-05
1741002485.4568818,231,1.6087054973468184e-05
1741002485.5142167,232,2.0880583178950474e-05
1741002485.5709646,233,1.3260482774057891e-05
1741002485.6286294,234,3.129434116999619e-05
1741002485.685792,235,1.0354192454542499e-05
1741002485.743974,236,8.915393664210569e-06
1741002485.8018486,237,1.2768944543495309e-05
1741002485.8591871,238,1.3707526704820339e-05
1741002485.9169352,239,2.9928338335594162e-05
1741002485.9720054,240,1.3542568012780976e-05
1741002486.6323557,241,2.5983343221014366e-05
1741002486.689136,242,1.9510722268023528e-05
1741002486.7474344,243,2.08619749173522e-05
1741002486.804121,244,9.61659043241525e-06
1741002486.861509,245,1.2771870387950912e-05
1741002486.9424415,246,2.6026351406471804e-05
1741002487.120166,247,6.762312295904849e-06
1741002487.2896945,248,1.1669067134789657e-05
1741002487.379692,249,1.255253482668195e-05
1741002487.4425416,250,8.939234248828143e-06
1741002488.278018,251,2.8734166335198097e-05
1741002488.3350637,252,1.4151557479635812e-05
1741002488.3919294,253,9.010883331939112e-06
1741002488.4504318,254,7.89722162153339e-06
1741002488.5155969,255,1.5134161003516056e-05
1741002488.6538198,256,1.9549514036043547e-05
1741002488.8243003,257,1.177727335743839e-05
1741002489.001854,258,6.1223954617162235e-06
1741002489.182538,259,9.878108357952442e-06
1741002489.3688567,260,2.420147939119488e-05
1741002490.359287,261,1.8345057469559833e-05
1741002490.4152324,262,1.1625390470726416e-05
1741002490.4733257,263,5.151283403392881e-06
1741002490.5319622,264,3.186280810041353e-05
1741002490.614081,265,1.4849403669359162e-05
1741002490.7202792,266,1.5936953786876984e-05
1741002490.7779756,267,1.0710939932323527e-05
1741002490.835899,268,1.60304280143464e-05
1741002490.8919892,269,9.334329661214724e-06
1741002490.94914,270,1.0823488082678523e-05
1741002491.7663648,271,1.2902401977044065e-05
1741002491.933357,272,8.279913345177192e-06
1741002492.1064482,273,2.7495945687405765e-05
1741002492.2756848,274,1.0431170267111156e-05
1741002492.3635526,275,7.12653582013445e-06
1741002492.4253485,276,2.423253135930281e-05
1741002492.482303,277,1.2573375897773076e-05
1741002492.5372896,278,8.367449481738731e-06
1741002492.5920408,279,8.768600309849717e-06
1741002492.649781,280,4.7325476771220565e-05
1741002493.523881,281,6.630205461988226e-06
1741002493.658375,282,4.139871816732921e-05
1741002493.8221776,283,2.1226278477115557e-05
1741002493.9922016,284,2.100563324347604e-05
1741002494.158029,285,1.4061595720704645e-05
1741002494.3359215,286,5.549031266127713e-05
1741002494.5141714,287,1.2027468073938508e-05
1741002494.6972365,288,9.552523806632962e-06
1741002494.8894324,289,1.5929428627714515e-05
1741002495.067903,290,8.01364967628615e-06
1741002496.301006,291,1.351378614344867e-05
1741002496.4600317,292,2.173459688492585e-05
1741002496.6376674,293,3.467548594926484e-05
1741002496.8034105,294,4.92739854962565e-06
1741002496.9755402,295,8.551403880119324e-06
1741002497.1366107,296,1.2530057574622333e-05
1741002497.3165288,297,8.262001756520476e-06
1741002497.4940248,298,1.540582161396742e-05
1741002497.6634371,299,1.4059052773518488e-05
1741002497.8211288,300,2.810305704770144e-05
1741002498.8979657,301,4.233414074406028e-06
1741002499.06721,302,2.31640697165858e-05
1741002499.2350767,303,7.405956239381339e-06
1741002499.3768766,304,6.9845145844738e-06
1741002499.4418187,305,4.929293572786264e-05
1741002499.5003912,306,8.757308933127206e-06
1741002499.5569797,307,1.801823418645654e-05
1741002499.615481,308,1.2740554666379467e-05
1741002499.6737854,309,1.7516778825665824e-05
1741002499.7293746,310,8.770254680712242e-06
1741002500.6624908,311,2.009995841945056e-05
1741002500.8361187,312,6.615581696678419e-06
1741002500.9871285,313,1.1004792213498149e-05
1741002501.1448498,314,1.2377116036077496e-05
1741002501.2924216,315,4.223360156174749e-05
1741002501.4369256,316,1.2876140317530371e-05
1741002501.6091316,317,9.352331289846916e-06
1741002501.7812052,318,2.118614975188393e-05
1741002501.9426851,319,1.1969471415795851e-05
1741002502.120069,320,5.515282737178495e-06
1741002503.3024828,321,3.444420508458279e-05
1741002503.4553847,322,7.324736998270964e-06
1741002503.5239253,323,8.970636372396257e-06
1741002503.5822074,324,2.006093563977629e-05
1741002503.6398523,325,1.3231579032435548e-05
1741002503.6955504,326,9.758360647538211e-06
1741002503.7529876,327,9.164833500108216e-06
1741002503.8089733,328,1.4100610314926598e-05
1741002503.8660653,329,1.8930857550003566e-05
1741002503.9445207,330,1.3063271580904257e-05
1741002505.009909,331,1.4128619113762397e-05
1741002505.1741235,332,1.0052404832094908e-05
1741002505.247127,333,8.337748113262933e-06
1741002505.30692,334,1.7401505829184316e-05
1741002505.3976696,335,1.0837463378265966e-05
1741002505.5770946,336,1.0922984074568376e-05
1741002505.7426925,337,9.701296221464872e-06
1741002505.9251053,338,1.4099084182817023e-05
1741002506.0986547,339,1.4255301721277647e-05
1741002506.2829518,340,2.4325239792233333e-05
1741002507.3929865,341,2.91409687633859e-05
1741002507.5767908,342,9.04920216271421e-06
1741002507.7511582,343,1.650319063628558e-05
1741002507.8931744,344,1.7052814655471593e-05
1741002507.9796913,345,9.430427780898754e-06
1741002508.0875838,346,1.8520167941460386e-05
1741002508.1505206,347,7.953790372994263e-06
1741002508.209913,348,4.775725756189786e-05
1741002508.2665775,349,3.103832932538353e-05
1741002508.3254428,350,1.16322562462301e-05
1741002509.5005915,351,1.6975780454231426e-05
1741002509.6842203,352,1.1519555300765205e-05
1741002509.8651326,353,9.634118214307819e-06
1741002509.9788742,354,1.0975807526847348e-05
1741002510.064779,355,1.7053158444468863e-05
1741002510.125191,356,8.646601600048598e-06
1741002510.1816177,357,4.536138476396445e-06
1741002510.2394016,358,1.6084908565972e-05
1741002510.2970176,359,1.3622214282804634e-05
1741002510.3549633,360,8.407291716139298e-06
1741002511.4383245,361,8.448740118183196e-06
1741002511.4934416,362,3.089029996772297e-05
1741002511.549237,363,2.0843730453634635e-05
1741002511.6041346,364,1.4939544598746579e-05
1741002511.6600554,365,1.2160181540821213e-05
1741002511.7160554,366,8.348310075234622e-06
1741002511.7728631,367,9.15036889637122e-06
1741002511.8281267,368,3.8854152080602944e-05
1741002511.884174,369,1.210257141792681e-05
1741002511.9933496,370,1.2830330888391472e-05
1741002513.08122,371,1.1012884897354525e-05
1741002513.2262084,372,1.4466821994574275e-05
1741002513.2903976,373,7.880929842940532e-06
1741002513.3487346,374,1.1490649740153458e-05
1741002513.4072714,375,9.462362868362106e-06
1741002513.4636095,376,1.1107674254162703e-05
1741002513.5213678,377,9.453227903577499e-06
1741002513.5782666,378,5.922848231421085e-06
1741002513.6366668,379,1.0392121112090535e-05
1741002513.693951,380,2.5000674213515595e-05
1741002514.8549938,381,2.7589858291321434e-05
1741002515.0358124,382,1.2035151485179085e-05
1741002515.2048242,383,1.1807480404968373e-05
1741002515.3686905,384,3.0812821933068335e-05
1741002515.5379725,385,1.6638226952636614e-05
1741002515.7221894,386,7.416543667204678e-06
1741002515.8954732,387,1.6452639101771638e-05
1741002516.0636654,388,2.0739258616231382e-05
1741002516.2475474,389,1.8901409930549562e-05
1741002516.430549,390,7.438407465087948e-06
1741002517.2964911,391,3.8274443795671687e-05
1741002517.4430468,392,1.8031400031759404e-05
1741002517.5157285,393,1.743795110087376e-05
1741002517.5774581,394,2.402592872385867e-05
1741002517.63713,395,1.715273901936598e-05
1741002517.6989377,396,3.9490507333539426e-05
1741002517.76134,397,1.556504867039621e-05
1741002517.8590882,398,2.45981846092036e-05
1741002517.9407074,399,6.670448783552274e-06
1741002517.9979248,400,1.4684657799080014e-05
1741002518.7929118,401,1.0325562470825389e-05
1741002518.9586117,402,8.394748874707147e-06
1741002519.1280503,403,4.617349986801855e-06
1741002519.2720034,404,1.4926249605196062e-05
1741002519.4232311,405,1.6627387594780885e-05
1741002519.4819365,406,1.526949017716106e-05
1741002519.5389094,407,8.94280819920823e-05
1741002519.5942128,408,2.6111532861250453e-05
1741002519.6524622,409,1.678314401942771e-05
1741002519.7144387,410,9.391798812430352e-06
1741002520.7177515,411,6.5456333686597645e-06
1741002520.7755387,412,9.28384451981401e-06
1741002520.8335056,413,8.77738420967944e-06
1741002520.898948,414,1.5749128579045646e-05
1741002521.0447164,415,3.095953434240073e-05
1741002521.1339118,416,1.0917789040831849e-05
1741002521.1961558,417,7.3654500738484785e-06
1741002521.254265,418,1.2088101357221603e-05
1741002521.3143277,419,2.146186125173699e-05
1741002521.374523,420,1.1689981874951627e-05
1741002522.3257203,421,2.8328717235126533e-05
1741002522.3818946,422,1.1876073585881386e-05
1741002522.437257,423,1.0398652193543967e-05
1741002522.49566,424,7.843605999369174e-06
1741002522.5535824,425,2.55340837611584e-05
1741002522.608418,426,1.4412126802199055e-05
1741002522.664381,427,1.0215139809588436e-05
1741002522.719694,428,1.0572927749308292e-05
1741002522.7774627,429,1.3015777767577674e-05
1741002522.8346336,430,1.129237989516696e-05
1741002523.7658868,431,1.0395834578957874e-05
1741002523.8229344,432,7.4343456617498305e-06
1741002523.8810833,433,8.53802794154035e-06
1741002523.9402356,434,1.0485931852599606e-05
1741002523.9967175,435,7.725524483248591e-06
1741002524.0549843,436,1.4962771274440456e-05
1741002524.1133008,437,1.4355985513248015e-05
1741002524.1696072,438,1.5194113075267524e-05
1741002524.226745,439,7.869484761613421e-06
1741002524.2842865,440,5.956842869636603e-06
1741002524.994278,441,1.016983424051432e-05
1741002525.0510123,442,8.701927981746849e-06
1741002525.1095772,443,1.55546822497854e-05
1741002525.2649662,444,1.1943530807911884e-05
1741002525.4252024,445,4.682040889747441e-05
1741002525.4858384,446,9.846463399298955e-06
1741002525.5447068,447,1.3644310456584208e-05
1741002525.6038299,448,1.3176876564102713e-05
1741002525.6609514,449,1.0075938916997984e-05
1741002525.717542,450,1.8821312551153824e-05
1741002526.3339243,451,2.0270827008062042e-05
1741002526.391404,452,1.2004705240542535e-05
1741002526.4456217,453,1.7820120774558745e-05
1741002526.504012,454,8.779834388406016e-06
1741002526.561309,455,1.0018356988439336e-05
1741002526.6203554,456,2.056671837635804e-05
1741002526.6767313,457,7.849403118598275e-06
1741002526.7340658,458,6.714186838507885e-06
1741002526.790904,459,5.465879439725541e-06
1741002526.8485007,460,1.799963865778409e-05
1741002527.656004,461,6.37646235190914e-06
1741002527.7126682,462,1.8479215214028955e-05
1741002527.7764807,463,8.123995939968154e-06
1741002527.8462896,464,1.8238171833218075e-05
1741002527.9035351,465,4.655486463889247e-06
1741002527.9606476,466,1.927264020196162e-05
1741002528.016802,467,3.223020758014172e-05
1741002528.0750775,468,1.6909101759665646e-05
1741002528.1321876,469,6.6632655943976715e-06
1741002528.1872642,470,1.5312398318201303e-05
1741002528.792672,471,6.803399173804792e-06
1741002528.8526573,472,1.5828401956241578e-05
1741002528.9126427,473,1.7061531252693385e-05
1741002528.971432,474,1.2008039448119234e-05
1741002529.029972,475,3.797126191784628e-05
1741002529.0869815,476,1.4917755834176205e-05
1741002529.1443434,477,1.291885655518854e-05
1741002529.2056804,478,1.3178474546293728e-05
1741002529.2648613,479,2.203818985435646e-05
1741002529.3240864,480,1.1375729627616238e-05
1741002530.4805036,481,1.1768639524234459e-05
1741002530.5388064,482,1.3515548744180705e-05
1741002530.5945704,483,1.334574153588619e-05
1741002530.6487572,484,1.2199378943478223e-05
1741002530.706879,485,1.986999632208608e-05
1741002530.7641077,486,1.1018027180398349e-05
1741002530.885001,487,1.0144701263925526e-05
1741002530.9598696,488,1.2579571375681553e-05
1741002531.0171351,489,2.4332766770385206e-05
1741002531.074179,490,1.4957213352317922e-05
1741002532.195693,491,4.6811378524580505e-06
1741002532.3498693,492,9.975605280487798e-06
1741002532.46849,493,2.246189433208201e-05
1741002532.5327008,494,9.814894838200416e-06
1741002532.5942976,495,6.129928806331009e-06
1741002532.6529367,496,9.24193318496691e-06
1741002532.7083206,497,6.5285626078548376e-06
1741002532.7664912,498,8.189335858332925e-06
1741002532.866822,499,1.2489443179219961e-05
