Wall time,Step,Value
1740851116.4298844,0,0.06908246129751205
1740851117.543075,1,0.06626517325639725
1740851117.60076,2,0.06553669273853302
1740851117.6611407,3,0.057841334491968155
1740851117.7166874,4,0.05515005439519882
1740851117.7750602,5,0.0518588051199913
1740851117.8409493,6,0.04960791766643524
1740851117.901817,7,0.044380638748407364
1740851118.0538793,8,0.03852529078722
1740851118.2036886,9,0.03242415934801102
1740851118.3289597,10,0.029373422265052795
1740851119.1526964,11,0.022777462378144264
1740851119.2093265,12,0.020576998591423035
1740851119.266998,13,0.01795966364443302
1740851119.379162,14,0.015528921969234943
1740851119.5545442,15,0.01667168363928795
1740851119.729169,16,0.014350834302604198
1740851119.8994727,17,0.012800032272934914
1740851120.0916545,18,0.01126301009207964
1740851120.27716,19,0.011274714954197407
1740851120.4630501,20,0.011780312284827232
1740851121.564521,21,0.010235458612442017
1740851121.7530227,22,0.008860676549375057
1740851121.9434764,23,0.007304164115339518
1740851122.1386173,24,0.007143125403672457
1740851122.322105,25,0.008519429713487625
1740851122.5072896,26,0.006913557182997465
1740851122.6806064,27,0.006840474903583527
1740851122.861054,28,0.0051552909426391125
1740851123.0488267,29,0.005448128096759319
1740851123.2377198,30,0.00470144534483552
1740851124.1949277,31,0.004987807944417
1740851124.3816276,32,0.005638343747705221
1740851124.56807,33,0.006123069673776627
1740851124.7589169,34,0.005380221176892519
1740851124.9269567,35,0.006835906766355038
1740851125.1122637,36,0.007507921662181616
1740851125.2972083,37,0.006770242936909199
1740851125.4805121,38,0.006002410314977169
1740851125.6692164,39,0.00669661583378911
1740851125.8526533,40,0.006939005106687546
1740851126.6238692,41,0.007581548765301704
1740851126.806955,42,0.005464514251798391
1740851126.9892602,43,0.005463344044983387
1740851127.1571643,44,0.0054850392043590546
1740851127.3464928,45,0.0035744374617934227
1740851127.534382,46,0.00422624358907342
1740851127.7097034,47,0.0036530024372041225
1740851127.8813138,48,0.00530970050022006
1740851128.0530741,49,0.004561955109238625
1740851128.2355735,50,0.004216001834720373
1740851129.3708215,51,0.0037851484958082438
1740851129.5535955,52,0.0033720333594828844
1740851129.736938,53,0.0034309825859963894
1740851129.9082084,54,0.002997024916112423
1740851130.0967777,55,0.0032728654332458973
1740851130.285353,56,0.0030448902398347855
1740851130.4676576,57,0.0033755849581211805
1740851130.6527205,58,0.0035136353690177202
1740851130.8258307,59,0.003712647594511509
1740851131.013388,60,0.0021623235661536455
1740851132.070491,61,0.0027306992560625076
1740851132.2564301,62,0.0023237462155520916
1740851132.438815,63,0.002395905088633299
1740851132.6232219,64,0.0023789589758962393
1740851132.8073099,65,0.0018965486669912934
1740851132.9793787,66,0.0018403914291411638
1740851133.1620636,67,0.001893180888146162
1740851133.3491979,68,0.0022436019498854876
1740851133.5402312,69,0.0020211483351886272
1740851133.730627,70,0.0018626046366989613
1740851134.641189,71,0.0025106286630034447
1740851134.8349304,72,0.0022021459881216288
1740851135.021189,73,0.001896078116260469
1740851135.2091506,74,0.0031473063863813877
1740851135.3957717,75,0.0028329750057309866
1740851135.586073,76,0.0031637176871299744
1740851135.768686,77,0.003413957776501775
1740851135.9505682,78,0.002677295822650194
1740851136.1315,79,0.0025730826891958714
1740851136.3083904,80,0.0023672454990446568
1740851137.149464,81,0.001968071097508073
1740851137.278119,82,0.002162444870918989
1740851137.3420668,83,0.001996147446334362
1740851137.4021187,84,0.002144787460565567
1740851137.4570112,85,0.0017005244735628366
1740851137.5152667,86,0.002297126455232501
1740851137.572245,87,0.002156735397875309
1740851137.6297336,88,0.003815119154751301
1740851137.686656,89,0.0017972135683521628
1740851137.7428691,90,0.0022203242406249046
1740851138.4479373,91,0.001796347787603736
1740851138.6309335,92,0.0016353284008800983
1740851138.816195,93,0.0018689400749281049
1740851138.9928024,94,0.0025998265482485294
1740851139.176286,95,0.002176854759454727
1740851139.3625133,96,0.0018400322878733277
1740851139.5503,97,0.0016426077345386147
1740851139.7190173,98,0.0016743744490668178
1740851139.9100525,99,0.002372189424932003
1740851140.1022067,100,0.0019973209127783775
1740851140.9488215,101,0.0016478977631777525
1740851141.133813,102,0.002068800153210759
1740851141.316301,103,0.0016129033174365759
1740851141.502148,104,0.001694601378403604
1740851141.6897733,105,0.0014493446797132492
1740851141.8731847,106,0.0021237260662019253
1740851142.061966,107,0.001955450279638171
1740851142.2489796,108,0.0017113895155489445
1740851142.4449763,109,0.0014192980015650392
1740851142.5570788,110,0.0017331347335129976
1740851143.3283799,111,0.0014092676574364305
1740851143.3880494,112,0.0016162511892616749
1740851143.444354,113,0.0014963482972234488
1740851143.5028942,114,0.0014166575856506824
1740851143.5603583,115,0.0016721966676414013
1740851143.6174183,116,0.001223328523337841
1740851143.6748364,117,0.001085856230929494
1740851143.732459,118,0.001042101182974875
1740851143.7895832,119,0.0012625936651602387
1740851143.8468359,120,0.0012311290483921766
1740851144.4003904,121,0.0012708073481917381
1740851144.4559195,122,0.0012911187950521708
1740851144.5138252,123,0.0015179415931925178
1740851144.570776,124,0.001361086149699986
1740851144.628839,125,0.0009865129832178354
1740851144.6863594,126,0.0014810677384957671
1740851144.8236234,127,0.0015817838720977306
1740851145.0081882,128,0.0016419668681919575
1740851145.1876097,129,0.002051561139523983
1740851145.3730829,130,0.0014941871631890535
1740851146.3703997,131,0.0009356983937323093
1740851146.5624151,132,0.0010314370738342404
1740851146.7562144,133,0.0017657815478742123
1740851146.8299835,134,0.001767073292285204
1740851146.8901582,135,0.0013523570960387588
1740851146.9476535,136,0.0018249716376885772
1740851147.0065503,137,0.0019123092060908675
1740851147.0645096,138,0.0017525736475363374
1740851147.120553,139,0.0018186954548582435
1740851147.1782537,140,0.001459521590732038
1740851147.8975494,141,0.0012456495314836502
1740851148.075637,142,0.0012639384949579835
1740851148.2620232,143,0.0013295951066538692
1740851148.4478195,144,0.0017013344913721085
1740851148.6413496,145,0.0014269101666286588
1740851148.833447,146,0.0012712846510112286
1740851149.0125015,147,0.0014236050192266703
1740851149.206935,148,0.0016498941695317626
1740851149.3975048,149,0.0012839591363444924
1740851149.5929933,150,0.001427290728315711
1740851150.6198187,151,0.0009740543900988996
1740851150.8138847,152,0.001253702910616994
1740851150.9878194,153,0.0010859385365620255
1740851151.1685967,154,0.000982399913482368
1740851151.357523,155,0.0009490889497101307
1740851151.5453796,156,0.0005860665114596486
1740851151.7302377,157,0.001212458242662251
1740851151.9230928,158,0.0012563650961965322
1740851152.113153,159,0.0010189826134592295
1740851152.283422,160,0.0010147941065952182
1740851153.2917662,161,0.0012072131503373384
1740851153.475097,162,0.0015549376839771867
1740851153.6545563,163,0.0008138518314808607
1740851153.8245106,164,0.0009939991869032383
1740851153.997934,165,0.00158792978618294
1740851154.152509,166,0.0010534542379900813
1740851154.3479164,167,0.0010498840129002929
1740851154.486597,168,0.0008281377959065139
1740851154.5515375,169,0.0009950184030458331
1740851154.6131096,170,0.001285903505049646
1740851155.2807856,171,0.0013850698014721274
1740851155.3384247,172,0.0013169017620384693
1740851155.396457,173,0.0010595765197649598
1740851155.456832,174,0.0011471916222944856
1740851155.5139635,175,0.0012139054015278816
1740851155.5709124,176,0.0010478378972038627
1740851155.628918,177,0.0009574528667144477
1740851155.685355,178,0.0012357609812170267
1740851155.7430904,179,0.001266753301024437
1740851155.8015144,180,0.00087493791943416
1740851156.4564693,181,0.0013424667995423079
1740851156.6231322,182,0.0011484025744721293
1740851156.8254607,183,0.0010667311726137996
1740851157.0167918,184,0.0010022642090916634
1740851157.2072773,185,0.0008524135919287801
1740851157.3954585,186,0.0012334416387602687
1740851157.5816665,187,0.001191949239000678
1740851157.7684257,188,0.0010391315445303917
1740851157.932603,189,0.0010328268399462104
1740851158.1298652,190,0.0010217113886028528
1740851159.1037266,191,0.0011985747842118144
1740851159.1829216,192,0.001501985127106309
1740851159.2494888,193,0.0010588575387373567
1740851159.308508,194,0.0013295579701662064
1740851159.414294,195,0.0010002689668908715
1740851159.4720807,196,0.00099893135484308
1740851159.5293224,197,0.0013270251220092177
1740851159.586164,198,0.0008698182064108551
1740851159.645172,199,0.0012644153321161866
1740851159.7008162,200,0.0010462297359481454
1740851160.4856203,201,0.001114363200031221
1740851160.6719003,202,0.0013829353265464306
1740851160.8599942,203,0.0010655652731657028
1740851161.0374155,204,0.0007766872295178473
1740851161.2245653,205,0.0010418867459520698
1740851161.4171877,206,0.0009084677440114319
1740851161.501772,207,0.0011099351104348898
1740851161.563255,208,0.0009141941554844379
1740851161.6191914,209,0.0008447248255833983
1740851161.6761224,210,0.001076290151104331
1740851162.4544926,211,0.0009621571516618133
1740851162.5248592,212,0.0009481429005973041
1740851162.584479,213,0.0009922216413542628
1740851162.6445003,214,0.0009661064832471311
1740851162.7010376,215,0.000614626391325146
1740851162.7565837,216,0.0012446179753169417
1740851162.8166537,217,0.0008182881283573806
1740851162.8727472,218,0.0010517188347876072
1740851162.929706,219,0.0005727367824874818
1740851162.989177,220,0.0008556079119443893
1740851163.6312544,221,0.0005416464409790933
1740851163.6881466,222,0.0009182486101053655
1740851163.7445471,223,0.0006924993940629065
1740851163.801326,224,0.0006776344962418079
1740851163.858637,225,0.0008308252436108887
1740851163.9133334,226,0.000836814462672919
1740851163.9710526,227,0.000883402768522501
1740851164.0311913,228,0.0009496796410530806
1740851164.0883646,229,0.0010865600779652596
1740851164.1470587,230,0.0009017686825245619
1740851164.8184855,231,0.0008956105448305607
1740851164.8758774,232,0.0009574543219059706
1740851164.933345,233,0.0008988342015072703
1740851164.9914591,234,0.00121882779058069
1740851165.0497756,235,0.0009394905064254999
1740851165.1080666,236,0.0008175054099410772
1740851165.1645672,237,0.0005083409487269819
1740851165.2225525,238,0.0009868635097518563
1740851165.2797449,239,0.0006812660139985383
1740851165.3363352,240,0.0010997338686138391
1740851166.1297646,241,0.0009710260783322155
1740851166.3200204,242,0.0008448365260846913
1740851166.5151021,243,0.0006156743038445711
1740851166.707822,244,0.0010561427334323525
1740851166.896336,245,0.0008552120998501778
1740851167.0863876,246,0.0006674433825537562
1740851167.2583718,247,0.0007644147262908518
1740851167.4324238,248,0.001086088246665895
1740851167.6226606,249,0.0008741582278162241
1740851167.8009663,250,0.0009420155547559261
1740851168.509531,251,0.0006007996853441
1740851168.567813,252,0.0009583684150129557
1740851168.624867,253,0.0004531116283033043
1740851168.6825185,254,0.0010000186739489436
1740851168.7386215,255,0.0007600420503877103
1740851168.7937284,256,0.0009801652049645782
1740851168.9159782,257,0.0011333684669807553
1740851169.0304363,258,0.0005463097477331758
1740851169.093833,259,0.0008716273587197065
1740851169.1531608,260,0.0010050141718238592
1740851169.892212,261,0.0008903989219106734
1740851170.0806346,262,0.000575441459659487
1740851170.259922,263,0.0007951181032694876
1740851170.4444501,264,0.0009378297254443169
1740851170.6258225,265,0.0011513795470818877
1740851170.8105888,266,0.0008534793742001057
1740851170.99503,267,0.0009894873946905136
1740851171.1656432,268,0.0007269574562087655
1740851171.3499687,269,0.0009447956108488142
1740851171.5375395,270,0.000996623421087861
1740851172.5583825,271,0.0006957625155337155
1740851172.7311568,272,0.0006838567787781358
1740851172.9170117,273,0.0009300547535531223
1740851173.1050055,274,0.0008019542437978089
1740851173.2835057,275,0.0009274523472413421
1740851173.4763496,276,0.0008828936261124909
1740851173.6609282,277,0.0008859561057761312
1740851173.8318186,278,0.0013255070662125945
1740851174.0149186,279,0.0008159553399309516
1740851174.1826603,280,0.0005415764753706753
1740851175.226187,281,0.0006823546136729419
1740851175.4094675,282,0.0009883769089356065
1740851175.5975084,283,0.0009336244547739625
1740851175.7811666,284,0.000680785917211324
1740851175.9714177,285,0.0006278843502514064
1740851176.1540017,286,0.0015425303718075156
1740851176.336953,287,0.0008542687282897532
1740851176.509674,288,0.000735482492018491
1740851176.6912303,289,0.0010037753963842988
1740851176.8653498,290,0.0005641871830448508
1740851177.826577,291,0.0006278808577917516
1740851177.9985461,292,0.0011089914478361607
1740851178.1871552,293,0.0010884341318160295
1740851178.3704238,294,0.0008512597414664924
1740851178.5523627,295,0.0008139320998452604
1740851178.7378478,296,0.0006759809912182391
1740851178.9203758,297,0.0004986159037798643
1740851179.1071098,298,0.0010063519002869725
1740851179.2950685,299,0.00043981196358799934
1740851179.474265,300,0.0006966022192500532
1740851180.4122422,301,0.0008632864919491112
1740851180.4700673,302,0.0005821462837047875
1740851180.5274537,303,0.0010814331471920013
1740851180.584991,304,0.0010920100612565875
1740851180.6415076,305,0.0009020212455652654
1740851180.698775,306,0.0007170916651375592
1740851180.7551038,307,0.0009521069587208331
1740851180.8108904,308,0.0007324432954192162
1740851180.8686883,309,0.0012620212510228157
1740851180.9374201,310,0.0006359786493703723
1740851181.9745057,311,0.000908555812202394
1740851182.1578214,312,0.0008077792590484023
1740851182.3311586,313,0.0011189767392352223
1740851182.5047853,314,0.0007407150114886463
1740851182.6914542,315,0.0005579431890510023
1740851182.8802502,316,0.0005425825365819037
1740851183.0629232,317,0.0007555365446023643
1740851183.2386372,318,0.0006923986366018653
1740851183.4281416,319,0.0010676189558580518
1740851183.6147034,320,0.0008414582698605955
1740851184.602514,321,0.0007202639826573431
1740851184.7747102,322,0.000944510567933321
1740851184.9668214,323,0.000990209518931806
1740851185.1570964,324,0.0008617145358584821
1740851185.2633703,325,0.0006282541435211897
1740851185.326211,326,0.000832770427223295
1740851185.388373,327,0.0005857651703990996
1740851185.4495306,328,0.000733079097699374
1740851185.6122427,329,0.00041361607145518064
1740851185.794533,330,0.0009330647881142795
1740851186.6807811,331,0.0011328344698995352
1740851186.7410882,332,0.0005889535532332957
1740851186.7972283,333,0.0007382248295471072
1740851186.8544478,334,0.0007992257596924901
1740851186.9119413,335,0.0008007103460840881
1740851186.9723773,336,0.0005921258125454187
1740851187.1218808,337,0.00044112358591519296
1740851187.306888,338,0.000816081534139812
1740851187.48668,339,0.0004881987697444856
1740851187.6724095,340,0.0011403264943510294
1740851188.4336736,341,0.0007235845550894737
1740851188.5004096,342,0.0006649500573985279
1740851188.558008,343,0.0005254257703199983
1740851188.6161065,344,0.000636664277408272
1740851188.6744654,345,0.000720831158105284
1740851188.732079,346,0.0007705065072514117
1740851188.7890558,347,0.0008418598445132375
1740851188.844397,348,0.0009726087446324527
1740851188.901991,349,0.0009050674270838499
1740851188.9571881,350,0.0007034989539533854
1740851189.4855592,351,0.0011393793392926455
1740851189.5428376,352,0.0011218704748898745
1740851189.6033695,353,0.000828297866974026
1740851189.6622155,354,0.0007292312220670283
1740851189.7226973,355,0.000670459121465683
1740851189.7781208,356,0.0003525122010614723
1740851189.8336868,357,0.0007676382083445787
1740851189.8984776,358,0.0010062346700578928
1740851190.0599942,359,0.0007126195123419166
1740851190.239511,360,0.0007658109534531832
1740851191.097454,361,0.0010869886027649045
1740851191.2823458,362,0.0006061364547349513
1740851191.4520457,363,0.0006203437224030495
1740851191.6381419,364,0.000713022134732455
1740851191.814157,365,0.0005905916332267225
1740851191.9853833,366,0.0007548104040324688
1740851192.1741064,367,0.0011499003740027547
1740851192.3595495,368,0.0007746320334263146
1740851192.5491405,369,0.0007776280981488526
1740851192.7332335,370,0.0008580888388678432
1740851193.874045,371,0.0008734222501516342
1740851194.0658045,372,0.001043357071466744
1740851194.2596216,373,0.0009082875913009048
1740851194.3374813,374,0.0008022215333767235
1740851194.399402,375,0.0008914444479160011
1740851194.4558268,376,0.0004814500571228564
1740851194.5141408,377,0.0009384157019667327
1740851194.573329,378,0.0013723550364375114
1740851194.7195795,379,0.0005575359100475907
1740851194.8955822,380,0.0006309644086286426
1740851195.88529,381,0.000608265632763505
1740851196.0732596,382,0.0005229311645962298
1740851196.1605322,383,0.0006222584052011371
1740851196.2207754,384,0.0004415837174747139
1740851196.278171,385,0.0005035219946876168
1740851196.334372,386,0.0010629267198964953
1740851196.3909533,387,0.00091106619220227
1740851196.4488287,388,0.0007004817016422749
1740851196.507641,389,0.00034089048858731985
1740851196.5645692,390,0.0005830535665154457
1740851197.5096762,391,0.0006691170274280012
1740851197.6843615,392,0.0010105948895215988
1740851197.7562134,393,0.0006510416860692203
1740851197.8424275,394,0.0006931847892701626
1740851197.9227786,395,0.00039957388071343303
1740851198.0946977,396,0.0006313769845291972
1740851198.2679284,397,0.0005909863393753767
1740851198.456387,398,0.0005080871633253992
1740851198.630301,399,0.0010794349946081638
1740851198.7240124,400,0.0006544521893374622
1740851199.4359221,401,0.0005385590484365821
1740851199.4939113,402,0.0005295565933920443
1740851199.5528908,403,0.0004267925978638232
1740851199.6087933,404,0.0005464666755869985
1740851199.6669471,405,0.0007957700290717185
1740851199.7233799,406,0.00033802035613916814
1740851199.7803605,407,0.000591559277381748
1740851199.8383355,408,0.0005156021215952933
1740851199.8958433,409,0.0007687648176215589
1740851199.9565163,410,0.0005810401635244489
1740851200.9054325,411,0.0006730066379532218
1740851201.090845,412,0.0008121165446937084
1740851201.2645261,413,0.0008396292105317116
1740851201.4360018,414,0.0011684070341289043
1740851201.6171308,415,0.000781959155574441
1740851201.801733,416,0.0009413269581273198
1740851201.9843287,417,0.000632456736639142
1740851202.1671836,418,0.0005158240091986954
1740851202.3505676,419,0.0006191165302880108
1740851202.53351,420,0.000753257772885263
1740851203.451207,421,0.00046814876259304583
1740851203.6367247,422,0.0008106312598101795
1740851203.8186967,423,0.000857506413012743
1740851204.0015152,424,0.0010040722554549575
1740851204.1833541,425,0.000590127834584564
1740851204.368914,426,0.0015640156343579292
1740851204.55966,427,0.0009136490407399833
1740851204.737109,428,0.0007559237419627607
1740851204.925847,429,0.001794813433662057
1740851205.1077015,430,0.0008336215396411717
1740851206.079942,431,0.0010738254059106112
1740851206.2667234,432,0.000943377148360014
1740851206.4342804,433,0.0006709701847285032
1740851206.615772,434,0.0006861809524707496
1740851206.8035667,435,0.0010423942003399134
1740851206.987293,436,0.0006284965202212334
1740851207.1693354,437,0.0008854569750837982
1740851207.3509943,438,0.0007665445446036756
1740851207.534416,439,0.0011422206880524755
1740851207.7185779,440,0.000712325912900269
1740851208.617986,441,0.0007946208352223039
1740851208.8024335,442,0.0005627871723845601
1740851208.9523132,443,0.000865945708937943
1740851209.0165148,444,0.000498254201374948
1740851209.07418,445,0.0007741556619293988
1740851209.1314533,446,0.0009848310146480799
1740851209.187757,447,0.0007000566693022847
1740851209.2467723,448,0.0007402108167298138
1740851209.304686,449,0.0007984479889273643
1740851209.3615186,450,0.001001339522190392
1740851210.2169602,451,0.0008143268642015755
1740851210.2726238,452,0.0005013694753870368
1740851210.3310661,453,0.0009637230541557074
1740851210.3872263,454,0.0005509236361831427
1740851210.4435918,455,0.0007070152787491679
1740851210.4991856,456,0.0006169509142637253
1740851210.5554442,457,0.000742285221349448
1740851210.6127467,458,0.0008498182287439704
1740851210.774311,459,0.0011218508007004857
1740851210.9601574,460,0.0013269794872030616
1740851211.5501375,461,0.0007040921482257545
1740851211.6059203,462,0.0006453660316765308
1740851211.6616626,463,0.0008356827311217785
1740851211.7175245,464,0.0006858768174424767
1740851211.7724054,465,0.0004802776384167373
1740851211.8298683,466,0.0008660269086249173
1740851211.8874245,467,0.0005366987315937877
1740851211.9455726,468,0.0003418539999984205
1740851212.0040686,469,0.0006146415253169835
1740851212.063411,470,0.0003483921755105257
1740851212.6715016,471,0.0008656472200527787
1740851212.7484972,472,0.0010658560786396265
1740851212.8548439,473,0.0007000723271630704
1740851212.980456,474,0.0008066117297858
1740851213.0795035,475,0.0009024263708852232
1740851213.1714091,476,0.0007272716611623764
1740851213.2425725,477,0.0009498968720436096
1740851213.3083475,478,0.0006268167053349316
1740851213.3745992,479,0.0006821576389484107
1740851213.4375675,480,0.0008015574421733618
1740851214.3030205,481,0.0007054454763419926
1740851214.3639715,482,0.0008234187844209373
1740851214.426294,483,0.0005333804292604327
1740851214.4882846,484,0.0008830701117403805
1740851214.5485814,485,0.0008971438510343432
1740851214.6567855,486,0.0006132250418886542
1740851214.723437,487,0.0008355689351446927
1740851214.7836301,488,0.0008637164137326181
1740851214.8447802,489,0.0009413616498932242
1740851214.9548337,490,0.0008013782207854092
1740851216.0365558,491,0.0007025428349152207
1740851216.2270715,492,0.0006835281383246183
1740851216.408077,493,0.0009609429398551583
1740851216.593622,494,0.0010247762547805905
1740851216.7611206,495,0.0008258467423729599
1740851216.9396448,496,0.0009336283546872437
1740851217.1247265,497,0.001048769918270409
1740851217.312358,498,0.0007240772829391062
1740851217.4932423,499,0.0009606536477804184
