Wall time,Step,Value
1741003015.373566,0,0.03433575481176376
1741003016.0414207,1,0.010720976628363132
1741003016.0612886,2,0.005924162920564413
1741003016.079788,3,0.004259181208908558
1741003016.0984323,4,0.0037126115057617426
1741003016.116697,5,0.002690663328394294
1741003016.135159,6,0.0034276386722922325
1741003016.153255,7,0.0027693756856024265
1741003016.1711879,8,0.001955232350155711
1741003016.1890736,9,0.0030515044927597046
1741003016.6650426,10,0.0020893665496259928
1741003016.7181118,11,0.0023262700997292995
1741003016.7678099,12,0.0016267468454316258
1741003016.8205545,13,0.002103212522342801
1741003016.8732874,14,0.003494305070489645
1741003016.9172068,15,0.002380508230999112
1741003016.951187,16,0.002253612270578742
1741003016.9819865,17,0.0015906525077298284
1741003017.0150237,18,0.0024756125640124083
1741003017.4871557,19,0.0017078348901122808
1741003017.5230906,20,0.0009063204634003341
1741003017.5438666,21,0.0009562638588249683
1741003017.5637114,22,0.0007231930503621697
1741003017.582969,23,0.0016367965145036578
1741003017.6022573,24,0.0017306017689406872
1741003017.6211755,25,0.0015852277865633368
1741003017.6399102,26,0.0015860586427152157
1741003017.6589136,27,0.0017810557037591934
1741003018.123248,28,0.0012768302112817764
1741003018.149473,29,0.0007247334579005837
1741003018.1777873,30,0.0010299012064933777
1741003018.2084188,31,0.0007645314908586442
1741003018.2403724,32,0.0026793526485562325
1741003018.2729938,33,0.001026627724058926
1741003018.3054554,34,0.0006228447309695184
1741003018.337377,35,0.00045941679854877293
1741003018.3681958,36,0.00021341550746001303
1741003018.8935955,37,0.00014586122415494174
1741003018.9378595,38,3.525884676491842e-05
1741003018.9742618,39,0.00016099443018902093
1741003019.010397,40,0.0005693832645192742
1741003019.0549471,41,0.0006988210370764136
1741003019.0994537,42,0.0020852324087172747
1741003019.1505303,43,0.0014852839522063732
1741003019.1914117,44,0.0010431683622300625
1741003019.2360654,45,0.0004020962805952877
1741003019.7273843,46,0.0004835590079892427
1741003019.7614815,47,0.00017836608458310366
1741003019.7949007,48,0.00010162213584408164
1741003019.827556,49,9.518447768641636e-05
1741003019.8724782,50,0.0001052980514941737
1741003019.920477,51,3.426942930673249e-05
1741003019.975116,52,1.7156808098661713e-05
1741003020.0191402,53,2.7930736905545928e-05
1741003020.0479438,54,2.2601199816563167e-05
1741003020.5619993,55,6.2604907725472e-05
1741003020.5875194,56,0.00011314295988995582
1741003020.613094,57,2.9072178222122602e-05
1741003020.6409428,58,1.9064142179558985e-05
1741003020.6705706,59,1.914849599415902e-05
1741003020.701397,60,2.7025922463508323e-05
1741003020.7359495,61,1.2807967323169578e-05
1741003020.7803035,62,5.001121826353483e-05
1741003020.8254006,63,1.1828286005766131e-05
1741003021.2610958,64,3.9017468225210905e-05
1741003021.2871816,65,6.263260002015159e-05
1741003021.312447,66,3.053094769711606e-05
1741003021.3535647,67,2.1017827748437412e-05
1741003021.3891628,68,1.565648017276544e-05
1741003021.4231653,69,1.539491677249316e-05
1741003021.4557014,70,2.1468635168275796e-05
1741003021.487533,71,1.2014409549010452e-05
1741003021.5332987,72,7.97862303443253e-05
1741003021.9987826,73,3.1432595278602093e-05
1741003022.034702,74,6.353863864205778e-05
1741003022.0661597,75,1.3194308849051595e-05
1741003022.098031,76,2.2875950890011154e-05
1741003022.1302927,77,2.4983195544336922e-05
1741003022.1628673,78,1.735749901854433e-05
1741003022.1946094,79,2.3096356017049402e-05
1741003022.2263508,80,2.131958353857044e-05
1741003022.2730613,81,6.590676093765069e-06
1741003022.725261,82,1.2327716831350699e-05
1741003022.7562723,83,8.418930519837886e-06
1741003022.7865882,84,6.011349341861205e-06
1741003022.8169084,85,3.8091537135187536e-05
1741003022.8509715,86,4.391539732750971e-06
1741003022.8928118,87,1.68107380886795e-05
1741003022.9484096,88,6.0432021200540476e-06
1741003022.9968276,89,5.0861153795267455e-06
1741003023.033939,90,1.6176551071112044e-05
1741003023.534863,91,5.779190814791946e-06
1741003023.5633366,92,1.0803277291415725e-05
1741003023.6048012,93,5.777744718216127e-06
1741003023.6459343,94,1.2957582839590032e-05
1741003023.690146,95,8.840124792186543e-06
1741003023.7300065,96,1.538881588203367e-05
1741003023.7716403,97,4.287496722099604e-06
1741003023.8084953,98,4.495381745073246e-06
1741003023.8584442,99,5.1246388466097414e-06
1741003024.3306856,100,1.0396076504548546e-05
1741003024.3619063,101,7.566454314655857e-06
1741003024.3938673,102,7.212292075564619e-06
1741003024.4267743,103,7.6189949140825775e-06
1741003024.459903,104,6.1652363001485355e-06
1741003024.489923,105,7.114959771570284e-06
1741003024.5177877,106,4.197712314635282e-06
1741003024.5443776,107,1.3508209121937398e-05
1741003024.5700648,108,9.519057130091824e-06
1741003025.1348622,109,4.349506070866482e-06
1741003025.1786375,110,3.876783466694178e-06
1741003025.2125041,111,1.1492526027723216e-05
1741003025.2481787,112,7.870263289078139e-06
1741003025.2845514,113,3.7353088373492938e-06
1741003025.3169198,114,1.0810401363414712e-05
1741003025.355513,115,6.13497759331949e-05
1741003025.3944607,116,3.920612925867317e-06
1741003025.435685,117,4.189253104414092e-06
1741003025.8899236,118,1.615546534594614e-05
1741003025.9165354,119,8.804859680822119e-05
1741003025.9418833,120,7.400397862511454e-06
1741003025.9800782,121,6.285959898377769e-06
1741003026.015674,122,4.036933660245268e-06
1741003026.053559,123,5.675283773598494e-06
1741003026.1023388,124,3.3996011552517302e-06
1741003026.1542845,125,7.5834113886230625e-06
1741003026.2089062,126,4.944817646901356e-06
1741003026.7239234,127,4.451219865586609e-06
1741003026.7524047,128,5.777810656582005e-06
1741003026.7831385,129,3.6944813928130316e-06
1741003026.8124,130,3.7493055060622282e-06
1741003026.8512003,131,1.0756481060525402e-05
1741003026.8754153,132,6.894411853863858e-06
1741003026.8943834,133,8.37311745272018e-06
1741003026.9125473,134,3.5986281545774546e-06
1741003026.9300942,135,8.232476830016822e-06
1741003027.3573515,136,7.032538633211516e-06
1741003027.3902721,137,7.586905667267274e-06
1741003027.4215753,138,4.37781181972241e-06
1741003027.452427,139,3.4357631193415727e-06
1741003027.4831953,140,6.690931058983551e-06
1741003027.5151575,141,3.953027771785855e-06
1741003027.5477679,142,7.589201231894549e-06
1741003027.579552,143,3.1339641282102093e-06
1741003027.6112392,144,3.4919928566523595e-06
1741003028.0968244,145,5.962449904473033e-06
1741003028.1445436,146,7.992918654053938e-06
1741003028.1897812,147,2.772509105852805e-06
1741003028.2352705,148,2.10765324482054e-06
1741003028.288678,149,3.1136883080762345e-06
1741003028.3424983,150,3.82770667783916e-06
1741003028.392109,151,5.619721378025133e-06
1741003028.4391952,152,8.011773388716392e-06
1741003028.499065,153,3.127925538137788e-06
1741003028.9295828,154,1.565753109389334e-06
1741003028.97386,155,4.21815366280498e-06
1741003028.9991076,156,3.876817117998144e-06
1741003029.0186253,157,3.817852757492801e-06
1741003029.0379403,158,2.5265314889111323e-06
1741003029.0564303,159,2.776036808427307e-06
1741003029.074067,160,2.831500978572876e-06
1741003029.0920184,161,2.613377546367701e-06
1741003029.109674,162,4.05180117013515e-06
1741003029.4972165,163,4.011011242255336e-06
1741003029.517124,164,2.4607063551229658e-06
1741003029.5356407,165,2.7287712782708695e-06
1741003029.5536282,166,2.6990044261765433e-06
1741003029.5715637,167,2.32649745157687e-06
1741003029.589552,168,1.2065657756465953e-05
1741003029.6076295,169,6.450127330026589e-06
1741003029.6263864,170,3.852443569485331e-06
1741003029.6453307,171,3.694379074659082e-06
1741003030.26731,172,2.0958584627805976e-06
1741003030.320213,173,2.3086897272150964e-05
1741003030.362318,174,4.135304152441677e-06
1741003030.4144194,175,2.249046701763291e-06
1741003030.4695375,176,2.617379777802853e-06
1741003030.5299284,177,2.922259682236472e-06
1741003030.584714,178,7.5496304816624615e-06
1741003030.6413195,179,1.8880502921092557e-06
1741003030.6953642,180,2.726207185332896e-06
1741003031.1739736,181,4.155092483415501e-06
1741003031.225181,182,8.092249117908068e-06
1741003031.2736723,183,2.6327809337090002e-06
1741003031.322718,184,3.2797402127471287e-06
1741003031.3495793,185,4.706211711891228e-06
1741003031.3756151,186,2.0578631847456563e-06
1741003031.40144,187,7.304255177587038e-06
1741003031.4356377,188,2.5378419650223805e-06
1741003031.4752889,189,1.2437290024536196e-05
1741003031.8985636,190,2.7618693820841145e-06
1741003031.9430778,191,2.757000856945524e-06
1741003031.9736192,192,4.917824753647437e-06
1741003031.9935927,193,3.1900062822387554e-06
1741003032.0127654,194,2.5190918222506298e-06
1741003032.0316355,195,1.9321023501106538e-06
1741003032.0497835,196,1.5744300299047609e-06
1741003032.0677094,197,3.1568379199597985e-06
1741003032.0856776,198,4.266057203494711e-06
1741003032.51669,199,6.5741355683712754e-06
1741003032.560943,200,2.3410739231621847e-06
1741003032.5957565,201,2.1538019154832e-06
1741003032.6280186,202,2.8343338271952234e-06
1741003032.6582377,203,2.70416853709321e-06
1741003032.6880732,204,5.4978099797153845e-06
1741003032.7182558,205,1.5938506976453937e-06
1741003032.748493,206,2.035960960711236e-06
1741003032.7796955,207,1.6355652405763976e-06
1741003033.23317,208,3.6253400139685255e-06
1741003033.274209,209,4.449615971680032e-06
1741003033.3116884,210,2.241008132841671e-06
1741003033.3330636,211,4.619780611392343e-06
1741003033.352377,212,1.474451664762455e-06
1741003033.3712294,213,1.6003965583877289e-06
1741003033.3895898,214,3.0570347462344216e-06
1741003033.4076784,215,2.286906010340317e-06
1741003033.4253576,216,1.5620651083736448e-06
1741003033.8296223,217,2.242468099211692e-06
1741003033.849154,218,1.7186238210342708e-06
1741003033.8875859,219,5.8419873312232085e-06
1741003033.9248626,220,5.362688170862384e-06
1741003033.9530406,221,3.8018881696189055e-06
1741003033.973136,222,3.4433892324159387e-06
1741003033.9923923,223,2.503501036699163e-06
1741003034.0116549,224,4.129775334149599e-06
1741003034.0301154,225,2.622470219648676e-06
1741003034.5366378,226,1.7620371863813489e-06
1741003034.5611463,227,3.7472884741873713e-06
1741003034.58655,228,2.84751854451315e-06
1741003034.6117697,229,2.018568466155557e-06
1741003034.6368134,230,3.256496256653918e-06
1741003034.6618743,231,2.1624280179821653e-06
1741003034.6875343,232,7.408637884509517e-06
1741003034.7134218,233,2.43533099819615e-06
1741003034.7384365,234,1.797112986423599e-06
1741003035.1581697,235,6.778878287150292e-06
1741003035.1765037,236,2.5372069103468675e-06
1741003035.2141335,237,6.750026386725949e-06
1741003035.245204,238,6.742837740603136e-06
1741003035.275581,239,3.867298801196739e-06
1741003035.309382,240,1.6101419078040635e-06
1741003035.3298016,241,3.570710532585508e-06
1741003035.3489847,242,2.084839707094943e-06
1741003035.367759,243,2.577264012870728e-06
1741003035.8147774,244,3.3358580822095973e-06
1741003035.8506272,245,1.0053819096356165e-05
1741003035.8835254,246,2.6395730401418405e-06
1741003035.9151614,247,2.402364543740987e-06
1741003035.9453247,248,2.7728437999030575e-06
1741003035.9755218,249,2.527904143789783e-06
1741003036.0065203,250,3.2353823371522594e-06
1741003036.0372365,251,2.745236542978091e-06
1741003036.0685325,252,2.997841420437908e-06
1741003036.4631543,253,3.351764689796255e-06
1741003036.4815536,254,4.449058906175196e-06
1741003036.4996278,255,2.4173609745048452e-06
1741003036.5177815,256,1.254238304682076e-05
1741003036.5359905,257,2.15334284803248e-06
1741003036.5545437,258,2.0623026557586854e-06
1741003036.5728726,259,3.1194388157018693e-06
1741003036.5914195,260,1.4462599438047619e-06
1741003036.6103003,261,1.3885598946217215e-06
1741003036.9919937,262,1.8960212173624313e-06
1741003037.011088,263,2.4715168365219142e-06
1741003037.0293882,264,2.3601500288350508e-05
1741003037.0474734,265,1.35221125674434e-06
1741003037.065672,266,3.7634722502843942e-06
1741003037.0835197,267,4.0066538531391416e-06
1741003037.1016338,268,1.4869034430375905e-06
1741003037.1198258,269,1.516078441454738e-06
1741003037.13768,270,1.9783240077231312e-06
1741003037.581006,271,1.7096008377848193e-06
1741003037.5995467,272,2.753155058599077e-06
1741003037.6181645,273,1.3834988976668683e-06
1741003037.636295,274,6.4090199884958565e-06
1741003037.6542716,275,5.531249826162821e-06
1741003037.6722887,276,8.857045031618327e-06
1741003037.6900818,277,1.4469777624981361e-06
1741003037.7081077,278,2.4394873889832525e-06
1741003037.7267277,279,2.857213530660374e-06
1741003038.2015321,280,4.448370418685954e-06
1741003038.23211,281,2.7020594188797986e-06
1741003038.2633035,282,1.275496856578684e-06
1741003038.2958674,283,2.060299266304355e-06
1741003038.3275843,284,3.8741382013540715e-06
1741003038.3800817,285,9.135662367043551e-06
1741003038.4216888,286,3.5716166166821495e-06
1741003038.4579186,287,1.8335497316002147e-06
1741003038.4911466,288,1.4121748108664178e-06
1741003039.0785403,289,1.9979327134933555e-06
1741003039.1181004,290,2.4572061647631926e-06
1741003039.1552389,291,3.593870360418805e-06
1741003039.199509,292,3.5709620078705484e-06
1741003039.2452772,293,3.569531145330984e-06
1741003039.2822905,294,3.5289081097289454e-06
1741003039.3166602,295,3.91199091609451e-06
1741003039.348072,296,3.8125783703435445e-06
1741003039.3796854,297,5.914374469284667e-06
1741003039.7635763,298,2.8488811949500814e-06
1741003039.7829921,299,1.4846062867945875e-06
1741003039.8013082,300,1.7020111044985242e-06
1741003039.8194616,301,3.3850790259748464e-06
1741003039.8371367,302,2.80345511782798e-06
1741003039.8551655,303,1.6723877251934027e-06
1741003039.8732321,304,4.640730367100332e-06
1741003039.890878,305,7.490330517612165e-06
1741003039.908758,306,1.6547415953027667e-06
1741003040.2936583,307,2.328719347133301e-06
1741003040.3125496,308,5.5362975217576604e-06
1741003040.3309,309,2.3982163384062005e-06
1741003040.3489714,310,1.8285190890310332e-06
1741003040.366961,311,4.066371730004903e-06
1741003040.384813,312,2.2721362711308757e-06
1741003040.402948,313,2.203335270678508e-06
1741003040.4208763,314,1.7106233372032875e-06
1741003040.4388258,315,1.8931600607174914e-06
1741003040.8734372,316,2.043005224550143e-06
1741003040.916143,317,1.3465459005601588e-06
1741003040.949478,318,2.041343122982653e-06
1741003040.9816735,319,1.887437974801287e-06
1741003041.0134265,320,2.8264521461096592e-06
1741003041.0452554,321,1.7411782664567e-06
1741003041.0768006,322,2.4089788439596305e-06
1741003041.1082206,323,2.530836354708299e-06
1741003041.1476896,324,2.589885070847231e-06
1741003041.6002107,325,1.0175745956075843e-05
1741003041.6401267,326,4.381005965115037e-06
1741003041.6884034,327,2.4066825972113293e-06
1741003041.73581,328,2.7090545700048096e-06
1741003041.7840924,329,4.836600965063553e-06
1741003041.8353412,330,1.09757320387871e-06
1741003041.8786976,331,2.891594704124145e-06
1741003041.9205759,332,1.4185192185323103e-06
1741003041.9734812,333,1.4167985682433937e-06
1741003042.4581249,334,1.2796000419257325e-06
1741003042.5116165,335,2.4011840196180856e-06
1741003042.54524,336,2.2445342438004445e-06
1741003042.5653791,337,3.3736300792952534e-06
1741003042.5942814,338,1.981459263333818e-06
1741003042.6339235,339,2.2895640086062485e-06
1741003042.678979,340,3.905278845195426e-06
1741003042.7205238,341,1.3455476164381253e-06
1741003042.7568145,342,1.2976843208889477e-06
1741003043.2388976,343,2.9177963369875215e-06
1741003043.2836576,344,4.477765287447255e-06
1741003043.3201733,345,5.079567927168682e-06
1741003043.369069,346,3.061959205297171e-06
1741003043.412322,347,1.6173562471522018e-06
1741003043.4596782,348,2.906331701524323e-06
1741003043.5100343,349,1.9259950931882486e-06
1741003043.5624537,350,2.1801463390147546e-06
1741003043.6140141,351,1.562348870720598e-06
1741003044.194036,352,3.567399517123704e-06
1741003044.2340858,353,6.5551698753552046e-06
1741003044.2677772,354,1.8845150862034643e-06
1741003044.3013253,355,3.987385753134731e-06
1741003044.3540018,356,3.219540531063103e-06
1741003044.3986373,357,1.3484077499015257e-06
1741003044.4363685,358,2.095282070513349e-06
1741003044.468354,359,1.403024953106069e-06
1741003044.49976,360,1.5238609876178089e-06
1741003044.914109,361,4.044086381327361e-06
1741003044.9336085,362,1.464590923205833e-06
1741003044.9708734,363,1.7911050917973625e-06
1741003045.0138524,364,3.032284212167724e-06
1741003045.0602388,365,4.057909336552257e-06
1741003045.096972,366,3.457865432210383e-06
1741003045.14038,367,1.7536666518935817e-06
1741003045.1774504,368,2.0850886812695535e-06
1741003045.2101457,369,1.2152469253123854e-06
1741003045.7451465,370,1.8508013681639568e-06
1741003045.7813022,371,1.4423309266931028e-06
1741003045.8154907,372,1.5224447906803107e-06
1741003045.8622425,373,4.868340965913376e-06
1741003045.8979948,374,2.1046475922048558e-06
1741003045.9320905,375,6.362603016896173e-06
1741003045.9728122,376,2.4311887045769254e-06
1741003046.0091097,377,1.9923170384572586e-06
1741003046.0422387,378,1.4637389540439472e-06
1741003046.5489247,379,1.8446218064127606e-06
1741003046.5953815,380,1.378058186674025e-06
1741003046.633167,381,1.1259110124228755e-06
1741003046.6660006,382,2.5614160676923348e-06
1741003046.6947966,383,2.124556431226665e-06
1741003046.721709,384,2.321788770132116e-06
1741003046.7508907,385,1.851215756687452e-06
1741003046.7877653,386,3.892558197549079e-06
1741003046.8204203,387,3.620881443566759e-06
1741003047.2771347,388,1.2938343161295052e-06
1741003047.3116434,389,3.0254138891905313e-06
1741003047.345815,390,2.852252919183229e-06
1741003047.393345,391,1.4342028862301959e-06
1741003047.443051,392,1.5279246099453303e-06
1741003047.481144,393,4.362065737950616e-06
1741003047.5167875,394,1.1439253739808919e-06
1741003047.5529838,395,1.561041790409945e-05
1741003047.594434,396,1.605941520210763e-06
1741003048.0869446,397,1.6257484958259738e-06
1741003048.1215327,398,1.5402367807837436e-06
1741003048.1542504,399,3.843584181595361e-06
1741003048.1881933,400,4.900046860711882e-06
1741003048.2309222,401,1.829833763622446e-06
1741003048.2753408,402,2.2702181468048366e-06
1741003048.328067,403,4.0005743358051404e-06
1741003048.3729107,404,1.7458098682254786e-06
1741003048.4083157,405,4.2910796764772385e-06
1741003049.0821822,406,4.890270247415174e-06
1741003049.1302657,407,1.6869283854248351e-06
1741003049.1794603,408,1.3723308711632853e-06
1741003049.23131,409,2.5301778805442154e-06
1741003049.2664502,410,1.2519874417193932e-06
1741003049.3088374,411,1.0893351145568886e-06
1741003049.3485541,412,2.8778322302969173e-06
1741003049.3911338,413,1.6948679331107996e-06
1741003049.4269774,414,6.00791463511996e-06
1741003049.8247633,415,2.108569105985225e-06
1741003049.8514957,416,9.282141490984941e-07
1741003049.8825777,417,2.493146894266829e-06
1741003049.9169488,418,2.0796012449864065e-06
1741003049.9549646,419,9.248802825823077e-07
1741003049.9889607,420,2.6139639430766692e-06
1741003050.0213945,421,3.2665723210811848e-06
1741003050.0693934,422,2.0472755295486422e-06
1741003050.1184576,423,1.3703909189644037e-06
1741003050.558269,424,1.1619891893133172e-06
1741003050.6006935,425,3.18563547807571e-06
1741003050.636575,426,4.1255161704611965e-06
1741003050.6693132,427,1.594649802427739e-06
1741003050.701374,428,3.1186668820737395e-06
1741003050.7340395,429,1.281365712202387e-06
1741003050.7788575,430,2.6612945021042833e-06
1741003050.8156097,431,1.1456065749371191e-06
1741003050.8504472,432,1.509284174971981e-06
1741003051.3611202,433,2.5914259822457097e-06
1741003051.4084756,434,1.4406966784008546e-06
1741003051.4505463,435,1.5929545043036342e-06
1741003051.4987047,436,3.6967517189623322e-06
1741003051.5291286,437,4.04390129915555e-06
1741003051.5633976,438,1.770232529452187e-06
1741003051.5922213,439,2.4792693693598267e-06
1741003051.6272316,440,1.3607044593300088e-06
1741003051.6654086,441,2.257558890050859e-06
1741003052.091488,442,9.093815265259764e-07
1741003052.118595,443,1.5389869076898322e-06
1741003052.1449509,444,2.1007883788115578e-06
1741003052.184268,445,3.913396994903451e-06
1741003052.2300284,446,1.281658114749007e-06
1741003052.266937,447,1.2095208603568608e-06
1741003052.3003922,448,1.3280720168040716e-06
1741003052.3429115,449,1.383209450978029e-06
1741003052.3933089,450,9.962595868273638e-07
1741003052.9010785,451,3.7501033602893585e-06
1741003052.9409227,452,2.4117064185702475e-06
1741003052.9974275,453,1.1480008197395364e-06
1741003053.0508,454,1.6212438822549302e-06
1741003053.099613,455,1.4682669871035614e-06
1741003053.151316,456,1.5369647599072778e-06
1741003053.1927066,457,2.0295651665946934e-06
1741003053.2258792,458,4.89811191073386e-06
1741003053.2678385,459,2.223061756012612e-06
1741003053.7655995,460,1.5882649222476175e-06
1741003053.8063347,461,2.517541133784107e-06
1741003053.8538792,462,9.311306143899856e-07
1741003053.9123569,463,1.2145125083407038e-06
1741003053.9599495,464,1.2602774859260535e-06
1741003053.9974022,465,3.0157773380778963e-06
1741003054.029987,466,2.752918589976616e-06
1741003054.070253,467,2.1190203369769733e-06
1741003054.105845,468,1.821965042836382e-06
1741003054.6345222,469,1.7179585483972915e-05
1741003054.6540499,470,1.3311157545103924e-06
1741003054.6725934,471,6.271766778809251e-06
1741003054.6909528,472,1.8458772501617204e-06
1741003054.7093263,473,1.9293083823868074e-06
1741003054.7273972,474,2.887077243940439e-06
1741003054.7450323,475,1.413488121215778e-06
1741003054.7628305,476,1.6013270851544803e-06
1741003054.7805772,477,2.4177966224669944e-06
1741003055.1720257,478,7.745229595457204e-06
1741003055.1999323,479,4.1742446228454355e-06
1741003055.231303,480,2.1198904960328946e-06
1741003055.2701228,481,3.0351593522937037e-06
1741003055.3151033,482,1.7224519979208708e-06
1741003055.364436,483,2.3932859676278895e-06
1741003055.4030154,484,1.8956092162625282e-06
1741003055.4463513,485,2.039780156337656e-06
1741003055.4817302,486,1.637705850043858e-06
1741003056.0296519,487,2.822273245328688e-06
1741003056.0735593,488,2.0594550278474344e-06
1741003056.1267612,489,1.345390046481043e-06
1741003056.1816356,490,3.473516244412167e-06
1741003056.2223537,491,4.198417173029156e-06
1741003056.2573695,492,3.1347394724434707e-06
1741003056.29727,493,1.2548235872600344e-06
1741003056.3377843,494,4.499829628912266e-06
1741003056.3727088,495,1.6637508224448538e-06
1741003056.863981,496,2.55184636444028e-06
1741003056.8969193,497,1.5062317970659933e-06
1741003056.9382951,498,2.279875388921937e-06
1741003056.9730456,499,1.366501351185434e-06
