Wall time,Step,Value
1740848368.2919085,0,0.059363413602113724
1740848369.3159099,1,0.04989004135131836
1740848369.3888967,2,0.04728751629590988
1740848369.4678023,3,0.046834591776132584
1740848369.5564997,4,0.04574204981327057
1740848369.6381762,5,0.04566940665245056
1740848369.7260919,6,0.04510710760951042
1740848369.8135822,7,0.045180875808000565
1740848369.9007754,8,0.04509122669696808
1740848369.967287,9,0.044996313750743866
1740848370.029554,10,0.04498885199427605
1740848370.6648834,11,0.04498883709311485
1740848370.6952577,12,0.04501080885529518
1740848370.7580664,13,0.04497772082686424
1740848370.8214474,14,0.04489743337035179
1740848370.8551183,15,0.04506046324968338
1740848370.8848076,16,0.04507312923669815
1740848370.913029,17,0.044952087104320526
1740848370.9415202,18,0.044996052980422974
1740848370.9691308,19,0.04496748745441437
1740848370.996855,20,0.044646527618169785
1740848371.61332,21,0.04415423050522804
1740848371.6814258,22,0.04374437406659126
1740848371.7153583,23,0.04448577016592026
1740848371.746653,24,0.0439123809337616
1740848371.776942,25,0.044020842760801315
1740848371.8327684,26,0.043880052864551544
1740848371.9025865,27,0.04364597052335739
1740848371.9747887,28,0.04344147816300392
1740848372.0551064,29,0.04397481679916382
1740848372.1339095,30,0.04408034682273865
1740848372.7608166,31,0.04376598075032234
1740848372.7896144,32,0.0439874529838562
1740848372.8495417,33,0.043782733380794525
1740848372.8810182,34,0.04385644569993019
1740848372.909884,35,0.04381844773888588
1740848372.9383488,36,0.044067930430173874
1740848372.9662771,37,0.04371752589941025
1740848372.9940503,38,0.04358375072479248
1740848373.0215435,39,0.04363623633980751
1740848373.0492203,40,0.0436805859208107
1740848373.6778648,41,0.0435749888420105
1740848373.7477276,42,0.04382188990712166
1740848373.8218431,43,0.043989308178424835
1740848373.8774924,44,0.0436805784702301
1740848373.912999,45,0.043806761503219604
1740848373.943154,46,0.04339608550071716
1740848373.9732642,47,0.043681200593709946
1740848374.0016463,48,0.043823279440402985
1740848374.029223,49,0.04381700977683067
1740848374.0575342,50,0.043539464473724365
1740848374.6619778,51,0.04367227107286453
1740848374.7269857,52,0.04373091086745262
1740848374.801857,53,0.04363853856921196
1740848374.8562095,54,0.043465688824653625
1740848374.8896656,55,0.04377654939889908
1740848374.9208124,56,0.04390333592891693
1740848374.9779553,57,0.04337669536471367
1740848375.023012,58,0.04342973232269287
1740848375.0552075,59,0.043549347668886185
1740848375.0850909,60,0.04341884329915047
1740848375.7562351,61,0.043249133974313736
1740848375.7852874,62,0.04322614148259163
1740848375.8137755,63,0.043260134756565094
1740848375.8422542,64,0.04338589310646057
1740848375.8702557,65,0.04343520477414131
1740848375.9325454,66,0.04360334575176239
1740848375.9996126,67,0.043319933116436005
1740848376.058908,68,0.04330407828092575
1740848376.0877616,69,0.04341913014650345
1740848376.116059,70,0.04333587735891342
1740848376.7116487,71,0.0433550626039505
1740848376.7800276,72,0.04336293786764145
1740848376.8126552,73,0.04322483390569687
1740848376.8418696,74,0.0433104932308197
1740848376.8696353,75,0.043386515229940414
1740848376.8984137,76,0.04336744546890259
1740848376.9262173,77,0.04332812875509262
1740848376.9541152,78,0.04353437200188637
1740848376.9823008,79,0.043436210602521896
1740848377.0107503,80,0.04340291768312454
1740848377.564139,81,0.04326369985938072
1740848377.5930636,82,0.04367362707853317
1740848377.6216788,83,0.043350424617528915
1740848377.6498864,84,0.04329417645931244
1740848377.6784182,85,0.04333081468939781
1740848377.706548,86,0.043241266161203384
1740848377.7349465,87,0.043299105018377304
1740848377.763894,88,0.04327630624175072
1740848377.7945552,89,0.04332870990037918
1740848377.8527286,90,0.04324109107255936
1740848378.499759,91,0.0434965118765831
1740848378.5739625,92,0.04322969540953636
1740848378.653271,93,0.043261025100946426
1740848378.7345166,94,0.04313298314809799
1740848378.8163717,95,0.043142855167388916
1740848378.9007714,96,0.04322822019457817
1740848378.986396,97,0.04318440333008766
1740848379.0272195,98,0.04328151047229767
1740848379.0612466,99,0.043232180178165436
1740848379.0927954,100,0.04312775656580925
1740848379.753957,101,0.04313254728913307
1740848379.8248947,102,0.043168969452381134
1740848379.9056177,103,0.043128449469804764
1740848379.9645288,104,0.043123845010995865
1740848380.0500157,105,0.04312551021575928
1740848380.1243505,106,0.043123289942741394
1740848380.1790073,107,0.04315714165568352
1740848380.2386386,108,0.043120238929986954
1740848380.3170137,109,0.04311877861618996
1740848380.4000535,110,0.04318807274103165
1740848381.020172,111,0.04312194138765335
1740848381.0899084,112,0.04314229264855385
1740848381.163569,113,0.043184682726860046
1740848381.2404613,114,0.043121159076690674
1740848381.31514,115,0.043195512145757675
1740848381.3921895,116,0.04312968999147415
1740848381.4665673,117,0.04312913864850998
1740848381.5417292,118,0.043120261281728745
1740848381.6294575,119,0.04312022402882576
1740848381.683756,120,0.0431208536028862
1740848382.377933,121,0.043122295290231705
1740848382.4076738,122,0.043126337230205536
1740848382.4352536,123,0.043122176080942154
1740848382.4630346,124,0.043131738901138306
1740848382.490378,125,0.043118394911289215
1740848382.5182703,126,0.04312514886260033
1740848382.545384,127,0.04311872273683548
1740848382.572437,128,0.043118301779031754
1740848382.602211,129,0.04311920329928398
1740848382.6302154,130,0.04317751154303551
1740848383.2416806,131,0.043145377188920975
1740848383.3216515,132,0.04317034035921097
1740848383.4044561,133,0.04312001168727875
1740848383.48496,134,0.04312121868133545
1740848383.5606797,135,0.0431206114590168
1740848383.6343265,136,0.04314484819769859
1740848383.711708,137,0.04312538355588913
1740848383.7849207,138,0.043121978640556335
1740848383.859052,139,0.04312153905630112
1740848383.9357336,140,0.043169181793928146
1740848384.6047056,141,0.04311969131231308
1740848384.678439,142,0.04312834143638611
1740848384.7550917,143,0.04318319261074066
1740848384.8232937,144,0.04316173866391182
1740848384.9131176,145,0.04320486634969711
1740848384.995464,146,0.04312365502119064
1740848385.0805776,147,0.043220389634370804
1740848385.1699953,148,0.0430661104619503
1740848385.2508934,149,0.043127335608005524
1740848385.327403,150,0.04311865568161011
1740848385.9372268,151,0.04317473620176315
1740848386.0142322,152,0.04311925172805786
1740848386.1009977,153,0.043120428919792175
1740848386.1883554,154,0.043120093643665314
1740848386.2671492,155,0.043001748621463776
1740848386.3558507,156,0.043148066848516464
1740848386.44231,157,0.043118152767419815
1740848386.524637,158,0.04299818351864815
1740848386.6134307,159,0.04313039034605026
1740848386.694376,160,0.043122515082359314
1740848387.3662214,161,0.0431511364877224
1740848387.399659,162,0.04312225803732872
1740848387.4341936,163,0.04311872646212578
1740848387.5014346,164,0.04312494397163391
1740848387.5789685,165,0.04311873018741608
1740848387.6632981,166,0.043118126690387726
1740848387.7414713,167,0.04312770813703537
1740848387.8238664,168,0.04311925172805786
1740848387.874393,169,0.04312710091471672
1740848387.9071846,170,0.0431186817586422
1740848388.4117858,171,0.043134309351444244
1740848388.4801853,172,0.04311804100871086
1740848388.5241108,173,0.04311802610754967
1740848388.6024241,174,0.043124325573444366
1740848388.6865523,175,0.04311850666999817
1740848388.7659194,176,0.04311813414096832
1740848388.852972,177,0.043118707835674286
1740848388.9334047,178,0.04311790317296982
1740848389.012106,179,0.04312928393483162
1740848389.0938277,180,0.04312128573656082
1740848389.7671616,181,0.04312035068869591
1740848389.8262587,182,0.04299592226743698
1740848389.889102,183,0.0431186705827713
1740848389.9387813,184,0.04311820864677429
1740848390.008503,185,0.04311840608716011
1740848390.089376,186,0.04311826452612877
1740848390.1671271,187,0.04311920329928398
1740848390.2420685,188,0.0431203693151474
1740848390.3219478,189,0.04311811923980713
1740848390.412036,190,0.04311777278780937
1740848391.031622,191,0.04311779513955116
1740848391.0965092,192,0.04299696907401085
1740848391.1276658,193,0.04312081262469292
1740848391.1564207,194,0.042996034026145935
1740848391.1841242,195,0.043118368834257126
1740848391.211098,196,0.043118081986904144
1740848391.2387557,197,0.04311790689826012
1740848391.265387,198,0.04314887523651123
1740848391.2925358,199,0.0431179478764534
1740848391.3194425,200,0.04312023147940636
1740848391.8587322,201,0.04312031343579292
1740848391.9378185,202,0.043118804693222046
1740848392.017434,203,0.04311838373541832
1740848392.1009507,204,0.04311803728342056
1740848392.1808217,205,0.04311845079064369
1740848392.261198,206,0.0431186743080616
1740848392.3488297,207,0.043118249624967575
1740848392.4235663,208,0.0431181974709034
1740848392.5125978,209,0.043118108063936234
1740848392.5908668,210,0.04311797767877579
1740848393.27651,211,0.043120354413986206
1740848393.351228,212,0.04312130808830261
1740848393.430513,213,0.0429961197078228
1740848393.5192146,214,0.04311852529644966
1740848393.6088316,215,0.04311809316277504
1740848393.6870718,216,0.04311830922961235
1740848393.7610626,217,0.043118059635162354
1740848393.835022,218,0.04311896115541458
1740848393.9095716,219,0.04315319284796715
1740848393.9919353,220,0.043118029832839966
1740848394.6469078,221,0.043118495494127274
1740848394.7252097,222,0.04312702640891075
1740848394.8022833,223,0.04311787709593773
1740848394.8773482,224,0.04311904311180115
1740848394.96216,225,0.04311824589967728
1740848395.0079675,226,0.043118126690387726
1740848395.0398521,227,0.0431196428835392
1740848395.0695229,228,0.04311928153038025
1740848395.097911,229,0.04311929643154144
1740848395.1256216,230,0.04311893507838249
1740848395.6971116,231,0.04313549026846886
1740848395.727215,232,0.04312106966972351
1740848395.7557914,233,0.04311806708574295
1740848395.7837753,234,0.04311934486031532
1740848395.8120813,235,0.04311834275722504
1740848395.839435,236,0.0431210920214653
1740848395.8668818,237,0.04311886802315712
1740848395.8941019,238,0.043118007481098175
1740848395.9217844,239,0.043117839843034744
1740848395.9497857,240,0.04311798885464668
1740848396.5674798,241,0.043118078261613846
1740848396.5969608,242,0.04311789572238922
1740848396.6261525,243,0.04311785101890564
1740848396.65465,244,0.043117962777614594
1740848396.6830769,245,0.04311852529644966
1740848396.7117023,246,0.04312076419591904
1740848396.7394788,247,0.043118566274642944
1740848396.7671943,248,0.04311848431825638
1740848396.7951205,249,0.043118126690387726
1740848396.823281,250,0.043117932975292206
1740848397.5223334,251,0.04311809316277504
1740848397.603301,252,0.042996205389499664
1740848397.6809406,253,0.04311810061335564
1740848397.7612681,254,0.0429958812892437
1740848397.8429768,255,0.043118659406900406
1740848397.923871,256,0.04311813786625862
1740848397.990728,257,0.04311782866716385
1740848398.031891,258,0.04311779513955116
1740848398.094363,259,0.04299643263220787
1740848398.1676247,260,0.04311840981245041
1740848398.7737231,261,0.04311826825141907
1740848398.8395848,262,0.0431179516017437
1740848398.9149368,263,0.04311802238225937
1740848398.9904823,264,0.043118420988321304
1740848399.062032,265,0.0431201234459877
1740848399.142625,266,0.04299569129943848
1740848399.2189043,267,0.04311792179942131
1740848399.2885773,268,0.04311799257993698
1740848399.3234615,269,0.043117932975292206
1740848399.3548963,270,0.04311799257993698
1740848399.9859333,271,0.043117936700582504
1740848400.0405736,272,0.04311787709593773
1740848400.1093113,273,0.04299620911478996
1740848400.1769104,274,0.043117739260196686
1740848400.2576993,275,0.04312136396765709
1740848400.3360727,276,0.043117865920066833
1740848400.4067895,277,0.04312022775411606
1740848400.4824307,278,0.043117962777614594
1740848400.5596757,279,0.04311808943748474
1740848400.6401916,280,0.04311811923980713
1740848401.2295978,281,0.04311808943748474
1740848401.2937617,282,0.04299610108137131
1740848401.366195,283,0.04311786964535713
1740848401.444221,284,0.04311804473400116
1740848401.5179472,285,0.043117862194776535
1740848401.5977108,286,0.04311801493167877
1740848401.6739326,287,0.04311789944767952
1740848401.7478688,288,0.0431179404258728
1740848401.8130326,289,0.04311780631542206
1740848401.869403,290,0.04311837628483772
1740848402.366825,291,0.04311956465244293
1740848402.413234,292,0.04311787337064743
1740848402.4525387,293,0.043119169771671295
1740848402.4809084,294,0.04311803728342056
1740848402.5096831,295,0.043127499520778656
1740848402.5378478,296,0.04311786964535713
1740848402.5663257,297,0.04311805218458176
1740848402.5953152,298,0.043118707835674286
1740848402.6237917,299,0.04311828687787056
1740848402.652277,300,0.04311780631542206
1740848403.137264,301,0.04311913996934891
1740848403.172559,302,0.04311782494187355
1740848403.2112257,303,0.04311784356832504
1740848403.2465675,304,0.04311803728342056
1740848403.2814069,305,0.04311804473400116
1740848403.3107588,306,0.04311840236186981
1740848403.3395128,307,0.043118882924318314
1740848403.368087,308,0.0431181900203228
1740848403.39689,309,0.04311779886484146
1740848403.4251356,310,0.04311785846948624
1740848404.0941286,311,0.043117791414260864
1740848404.1269624,312,0.04311801865696907
1740848404.1564174,313,0.04311803728342056
1740848404.1862507,314,0.043118998408317566
1740848404.2155738,315,0.04311775043606758
1740848404.2447634,316,0.043117836117744446
1740848404.2742796,317,0.0431184358894825
1740848404.3036761,318,0.04311789572238922
1740848404.3322835,319,0.0431186780333519
1740848404.3612406,320,0.04311992973089218
1740848404.878544,321,0.04311944916844368
1740848404.92932,322,0.04311823472380638
1740848404.9643056,323,0.04311800003051758
1740848405.001152,324,0.04311777651309967
1740848405.031908,325,0.043118689209222794
1740848405.0608516,326,0.04311874881386757
1740848405.0895452,327,0.043117813766002655
1740848405.1181726,328,0.0431181862950325
1740848405.1466532,329,0.0431179441511631
1740848405.1754353,330,0.04311840981245041
1740848405.7875204,331,0.04311925917863846
1740848405.8160448,332,0.04312010481953621
1740848405.8450072,333,0.04299639165401459
1740848405.8733644,334,0.04299631714820862
1740848405.9021006,335,0.043120838701725006
1740848405.9310248,336,0.04311877489089966
1740848405.95908,337,0.043119385838508606
1740848405.98764,338,0.04311877116560936
1740848406.0172117,339,0.04311785846948624
1740848406.0464451,340,0.04311782494187355
1740848406.586317,341,0.043117932975292206
1740848406.6162844,342,0.043117888271808624
1740848406.6465683,343,0.043118130415678024
1740848406.6773286,344,0.043118081986904144
1740848406.7070518,345,0.04311804845929146
1740848406.7370527,346,0.043120063841342926
1740848406.7680972,347,0.043117910623550415
1740848406.7983987,348,0.043117936700582504
1740848406.8297334,349,0.04311848059296608
1740848406.8596575,350,0.04311800375580788
1740848407.391771,351,0.04311785846948624
1740848407.4407754,352,0.04311807081103325
1740848407.4909575,353,0.04311774671077728
1740848407.5502152,354,0.04311831668019295
1740848407.6157959,355,0.0431179478764534
1740848407.6575809,356,0.04311799630522728
1740848407.6914165,357,0.043118223547935486
1740848407.7323346,358,0.043117791414260864
1740848407.8010662,359,0.04311782494187355
1740848407.8750248,360,0.043118033558130264
1740848408.4892375,361,0.043117742985486984
1740848408.524415,362,0.04311796650290489
1740848408.5689428,363,0.043117936700582504
1740848408.6373365,364,0.04311862587928772
1740848408.7095315,365,0.04311785474419594
1740848408.7845993,366,0.043117716908454895
1740848408.8575988,367,0.04311846196651459
1740848408.9337623,368,0.04311906546354294
1740848409.0054257,369,0.04311789572238922
1740848409.0717642,370,0.04311778023838997
1740848409.8053277,371,0.04311787337064743
1740848409.8849826,372,0.04311789944767952
1740848409.965167,373,0.0431179516017437
1740848410.0252705,374,0.043117862194776535
1740848410.064908,375,0.04311925545334816
1740848410.0974698,376,0.04311922937631607
1740848410.141793,377,0.043117787688970566
1740848410.2034204,378,0.043117955327034
1740848410.2706158,379,0.043117955327034
1740848410.3456104,380,0.04311814159154892
1740848411.0749097,381,0.04311782866716385
1740848411.1032708,382,0.042996522039175034
1740848411.1313984,383,0.04311802610754967
1740848411.1598651,384,0.043118081986904144
1740848411.187643,385,0.04311778396368027
1740848411.2156892,386,0.043121516704559326
1740848411.2435617,387,0.04311848059296608
1740848411.271455,388,0.04311785474419594
1740848411.2992826,389,0.043118055909872055
1740848411.3275025,390,0.04299590736627579
1740848411.883514,391,0.04311797395348549
1740848411.948049,392,0.04311784729361534
1740848411.996859,393,0.04311804845929146
1740848412.072657,394,0.0431186780333519
1740848412.1525192,395,0.04311811551451683
1740848412.234211,396,0.043118007481098175
1740848412.3216622,397,0.04311772435903549
1740848412.3979084,398,0.04311934858560562
1740848412.4769409,399,0.04311870411038399
1740848412.5642593,400,0.04311872273683548
1740848413.2139902,401,0.04311816766858101
1740848413.2913215,402,0.04311784729361534
1740848413.368974,403,0.042995717376470566
1740848413.4516861,404,0.04311788082122803
1740848413.5352204,405,0.043118156492710114
1740848413.621809,406,0.043119363486766815
1740848413.6973684,407,0.04311779886484146
1740848413.7739162,408,0.04311779513955116
1740848413.8481405,409,0.042996350675821304
1740848413.9339268,410,0.04311799630522728
1740848414.559179,411,0.043117787688970566
1740848414.625337,412,0.04311779513955116
1740848414.7061915,413,0.04299579933285713
1740848414.7812772,414,0.043118666857481
1740848414.8568368,415,0.043119948357343674
1740848414.932183,416,0.043118204921483994
1740848415.015793,417,0.04311785474419594
1740848415.0960507,418,0.043117955327034
1740848415.1765423,419,0.04311789944767952
1740848415.2587833,420,0.04311785846948624
1740848415.8895638,421,0.04311775416135788
1740848415.9648337,422,0.04299608990550041
1740848416.0392148,423,0.04311785474419594
1740848416.1121454,424,0.043117955327034
1740848416.1916854,425,0.043118275701999664
1740848416.2775245,426,0.04311777278780937
1740848416.3657057,427,0.043118081986904144
1740848416.4504263,428,0.04311777651309967
1740848416.5387197,429,0.04311848059296608
1740848416.628028,430,0.04299701750278473
1740848417.227647,431,0.04311932250857353
1740848417.2567494,432,0.04311775788664818
1740848417.2848861,433,0.04311787337064743
1740848417.313064,434,0.04311779886484146
1740848417.340985,435,0.043117981404066086
1740848417.3685756,436,0.04311792552471161
1740848417.3972497,437,0.04299667850136757
1740848417.4254239,438,0.04299597442150116
1740848417.453331,439,0.043117720633745193
1740848417.481227,440,0.043118175119161606
1740848418.1290944,441,0.0431179404258728
1740848418.1570747,442,0.04311848059296608
1740848418.1858997,443,0.04311850666999817
1740848418.2141938,444,0.04311845451593399
1740848418.2423885,445,0.04311966896057129
1740848418.2705255,446,0.04312508553266525
1740848418.298308,447,0.04311836510896683
1740848418.3256958,448,0.04311824589967728
1740848418.3528347,449,0.043120432645082474
1740848418.3802853,450,0.04311787337064743
1740848418.9242418,451,0.04311821237206459
1740848419.0024946,452,0.04311787337064743
1740848419.0866058,453,0.0431181825697422
1740848419.1653,454,0.04311908036470413
1740848419.2439668,455,0.043117690831422806
1740848419.3301241,456,0.043118007481098175
1740848419.4093401,457,0.043118320405483246
1740848419.4903913,458,0.043117765337228775
1740848419.573997,459,0.04311816021800041
1740848419.6545286,460,0.04311775043606758
1740848420.2916605,461,0.04311772808432579
1740848420.3627243,462,0.043118178844451904
1740848420.4385128,463,0.04311787337064743
1740848420.5209022,464,0.04311790317296982
1740848420.6069982,465,0.04311826080083847
1740848420.6895132,466,0.04311790689826012
1740848420.7712767,467,0.04311900958418846
1740848420.8580737,468,0.04311776161193848
1740848420.9414723,469,0.04311801493167877
1740848421.0262208,470,0.04312027990818024
1740848421.719814,471,0.043117962777614594
1740848421.7899294,472,0.04311792925000191
1740848421.8671577,473,0.04311826452612877
1740848421.953898,474,0.04311781004071236
1740848422.0414321,475,0.043117932975292206
1740848422.1229053,476,0.04311816394329071
1740848422.2026887,477,0.04311883822083473
1740848422.2878046,478,0.0431181937456131
1740848422.3760843,479,0.04311808571219444
1740848422.4612405,480,0.04312089830636978
1740848423.0813103,481,0.04311801493167877
1740848423.1582873,482,0.04311785474419594
1740848423.2304008,483,0.043118104338645935
1740848423.3166718,484,0.04299576207995415
1740848423.4034576,485,0.043118417263031006
1740848423.4810128,486,0.04299617558717728
1740848423.5551665,487,0.04311784729361534
1740848423.6297,488,0.04311785474419594
1740848423.7063525,489,0.04311797767877579
1740848423.779935,490,0.043117884546518326
1740848424.3634207,491,0.04312004894018173
1740848424.393146,492,0.04311850666999817
1740848424.4207938,493,0.04299675300717354
1740848424.448525,494,0.043117787688970566
1740848424.476205,495,0.04311823472380638
1740848424.5039098,496,0.04311982914805412
1740848424.531451,497,0.04311797022819519
1740848424.5588603,498,0.04311782866716385
1740848424.5866387,499,0.04311983287334442
