Wall time,Step,Value
1740850814.605391,0,0.06954602152109146
1740850815.8685534,1,0.06626084446907043
1740850816.046091,2,0.0628400593996048
1740850816.235564,3,0.051338959485292435
1740850816.4261072,4,0.042237792164087296
1740850816.613696,5,0.033539652824401855
1740850816.8033872,6,0.025512894615530968
1740850816.9731545,7,0.02005580998957157
1740850817.152459,8,0.014310210943222046
1740850817.3415985,9,0.01311368029564619
1740850817.526885,10,0.013332612812519073
1740850818.6694126,11,0.012361764907836914
1740850818.858421,12,0.009986435994505882
1740850819.0456474,13,0.011014693416655064
1740850819.228828,14,0.0085587278008461
1740850819.4179065,15,0.006093040108680725
1740850819.605051,16,0.0057266950607299805
1740850819.674084,17,0.006441966164857149
1740850819.7325625,18,0.004813572391867638
1740850819.8118243,19,0.006943965330719948
1740850819.945166,20,0.0055711097083985806
1740850820.9875398,21,0.0039039920084178448
1740850821.1627717,22,0.005627953447401524
1740850821.3387156,23,0.004099132958799601
1740850821.5207598,24,0.005668294616043568
1740850821.6945913,25,0.0041960165835917
1740850821.879065,26,0.003912574611604214
1740850822.065351,27,0.005070478189736605
1740850822.2423828,28,0.005306466948240995
1740850822.4311423,29,0.003965381532907486
1740850822.6215303,30,0.0037708485033363104
1740850823.5490978,31,0.002784599317237735
1740850823.739053,32,0.003141765482723713
1740850823.929874,33,0.0041942475363612175
1740850824.1201904,34,0.003140214830636978
1740850824.3119476,35,0.0034448241349309683
1740850824.4942603,36,0.004014145582914352
1740850824.6760845,37,0.002711819251999259
1740850824.8603902,38,0.0029213798698037863
1740850825.034248,39,0.003092642640694976
1740850825.2202845,40,0.0027999847661703825
1740850826.2240155,41,0.004085130989551544
1740850826.4162323,42,0.0028589642606675625
1740850826.6138952,43,0.004320861306041479
1740850826.7928596,44,0.00369278434664011
1740850826.9733424,45,0.004772341810166836
1740850827.1445758,46,0.005347839556634426
1740850827.2648091,47,0.005905367434024811
1740850827.3303812,48,0.0039031163323670626
1740850827.3915348,49,0.003186096902936697
1740850827.4496202,50,0.00346558284945786
1740850828.6491206,51,0.003255467163398862
1740850828.8112206,52,0.0025094046723097563
1740850828.898449,53,0.0026206420734524727
1740850829.0503616,54,0.0029003312811255455
1740850829.224445,55,0.002488755388185382
1740850829.4126346,56,0.0023627777118235826
1740850829.60076,57,0.0022577065974473953
1740850829.787166,58,0.0020445086993277073
1740850829.8795788,59,0.001986530376598239
1740850829.9430869,60,0.0023022727109491825
1740850830.9724905,61,0.0015396602684631944
1740850831.1612155,62,0.0016718950355425477
1740850831.3488576,63,0.0020387056283652782
1740850831.537569,64,0.0014949343167245388
1740850831.7235475,65,0.0017405989347025752
1740850831.9063957,66,0.0019064312800765038
1740850832.0925908,67,0.0018319339724257588
1740850832.285097,68,0.0017397227929905057
1740850832.4757106,69,0.002132959431037307
1740850832.6651275,70,0.0020329279359430075
1740850833.6101217,71,0.0018434515222907066
1740850833.7933743,72,0.00185773812700063
1740850833.973761,73,0.0017581379506736994
1740850834.1582632,74,0.0021388160530477762
1740850834.3407557,75,0.0021209651604294777
1740850834.5161173,76,0.00194941193331033
1740850834.6810915,77,0.0020438579376786947
1740850834.835898,78,0.0015638541663065553
1740850834.9259524,79,0.0021359112579375505
1740850835.0719814,80,0.0017760193441063166
1740850836.098681,81,0.0021343971602618694
1740850836.2708414,82,0.0019146171398460865
1740850836.4250715,83,0.002272624522447586
1740850836.5847337,84,0.001441555330529809
1740850836.7575233,85,0.0014878949150443077
1740850836.9276836,86,0.0013749625068157911
1740850837.0726802,87,0.0015223221853375435
1740850837.1574712,88,0.0010790175292640924
1740850837.2184265,89,0.0017608599737286568
1740850837.2811162,90,0.0016028366517275572
1740850838.1083965,91,0.0011815603356808424
1740850838.2633111,92,0.0021565277129411697
1740850838.4404998,93,0.0022165931295603514
1740850838.6114507,94,0.0016306639881804585
1740850838.7708237,95,0.0012832157080993056
1740850838.8632638,96,0.0014991962816566229
1740850839.036062,97,0.001354660140350461
1740850839.1225774,98,0.0020793057046830654
1740850839.180659,99,0.0011883758706972003
1740850839.2387705,100,0.0011076278751716018
1740850840.211992,101,0.0014425413683056831
1740850840.3724039,102,0.00129751767963171
1740850840.5555615,103,0.0011445953277871013
1740850840.728111,104,0.0015553631819784641
1740850840.8977673,105,0.0011508108582347631
1740850840.9876182,106,0.0009926330531015992
1740850841.1141646,107,0.0008789134444668889
1740850841.297205,108,0.0013334737159311771
1740850841.4610484,109,0.0011647724313661456
1740850841.6224973,110,0.001292707514949143
1740850842.6310618,111,0.001256601302884519
1740850842.7964394,112,0.0010995190823450685
1740850842.9524658,113,0.0010791635140776634
1740850843.1056256,114,0.0009294796036556363
1740850843.2278461,115,0.001150590949691832
1740850843.3524313,116,0.0006979324971325696
1740850843.416196,117,0.0017901158425956964
1740850843.4784307,118,0.0009928212966769934
1740850843.537619,119,0.0007730104262009263
1740850843.5979111,120,0.002433024113997817
1740850844.386105,121,0.001220272621139884
1740850844.5673332,122,0.002024660585448146
1740850844.7229724,123,0.0008811689913272858
1740850844.780915,124,0.0015088613145053387
1740850844.8433378,125,0.0007403391064144671
1740850844.92582,126,0.0006772496271878481
1740850844.9872363,127,0.000550946977455169
1740850845.0455256,128,0.0006262831739149988
1740850845.1029181,129,0.0005012248293496668
1740850845.1605785,130,0.0008321369532495737
1740850845.8159602,131,0.0010812683030962944
1740850845.9877954,132,0.0014849257422611117
1740850846.0985518,133,0.0010184149723500013
1740850846.1568909,134,0.0009908560896292329
1740850846.2146695,135,0.0010714647360146046
1740850846.275411,136,0.0008358979830518365
1740850846.3355703,137,0.0010776611743494868
1740850846.396322,138,0.0005871498724445701
1740850846.4597256,139,0.0008147440385073423
1740850846.5221274,140,0.0008399200742132962
1740850847.1645117,141,0.00044063670793548226
1740850847.2228055,142,0.0008415008778683841
1740850847.282496,143,0.001182363135740161
1740850847.3409357,144,0.0005821725935675204
1740850847.398546,145,0.0008058810490183532
1740850847.4577546,146,0.001233291462995112
1740850847.5162609,147,0.001368007273413241
1740850847.5742662,148,0.0007598801166750491
1740850847.6394918,149,0.0005547680775634944
1740850847.6990979,150,0.0007137860520742834
1740850848.5024428,151,0.00048814190085977316
1740850848.6794183,152,0.00045631758985109627
1740850848.8462536,153,0.0007282210281118751
1740850848.958432,154,0.0007060477510094643
1740850849.015526,155,0.0005641919560730457
1740850849.0724452,156,0.000996301183477044
1740850849.1315289,157,0.0007755666738376021
1740850849.1922815,158,0.0005925357108935714
1740850849.253209,159,0.0005212498363107443
1740850849.3139749,160,0.0005914745852351189
1740850850.064265,161,0.0003551912377588451
1740850850.2535462,162,0.0011121673742309213
1740850850.4242558,163,0.00043322599958628416
1740850850.6083646,164,0.0005732766585424542
1740850850.7936172,165,0.0007406188524328172
1740850850.9900613,166,0.0006451025838032365
1740850851.1705053,167,0.0009585195803083479
1740850851.350386,168,0.0005057296366430819
1740850851.5320237,169,0.0012322408147156239
1740850851.720941,170,0.0006121866754256189
1740850852.7521148,171,0.0007110273581929505
1740850852.9225612,172,0.0017043094849213958
1740850853.1048458,173,0.0003171416756231338
1740850853.2851176,174,0.0003013807872775942
1740850853.4710042,175,0.0004695241223089397
1740850853.644219,176,0.001090852078050375
1740850853.8353822,177,0.0009607146494090557
1740850854.0009253,178,0.000374452123651281
1740850854.1897793,179,0.0002891590411309153
1740850854.376095,180,0.0006454469985328615
1740850855.5035563,181,0.0015976540744304657
1740850855.6896672,182,0.0005117699620313942
1740850855.8699973,183,0.000815474078990519
1740850856.0526266,184,0.0008198541472665966
1740850856.2255855,185,0.0011959488037973642
1740850856.396933,186,0.00041171759949065745
1740850856.5772102,187,0.0006730836466886103
1740850856.7224607,188,0.0002970258647110313
1740850856.894852,189,0.0004051279975101352
1740850857.0857215,190,0.00045475506340153515
1740850858.2495944,191,0.0002738020266406238
1740850858.437124,192,0.0006724228733219206
1740850858.628958,193,0.0009705962729640305
1740850858.8179672,194,0.00025799553259275854
1740850858.939801,195,0.0004786265199072659
1740850859.0725803,196,0.00014200119767338037
1740850859.20533,197,0.00028686539735645056
1740850859.3832998,198,0.0003918736183550209
1740850859.5572505,199,0.00011191543308086693
1740850859.7389832,200,0.0004345678607933223
1740850860.640252,201,0.00023924297420307994
1740850860.826863,202,0.00019686394080054015
1740850861.0165389,203,0.0002350080612814054
1740850861.2024162,204,0.00019864918431267142
1740850861.3887305,205,0.0004773068940266967
1740850861.559216,206,0.0003141462802886963
1740850861.729066,207,0.0003413798112887889
1740850861.9199493,208,0.0002082628197968006
1740850862.110978,209,0.00038387818494811654
1740850862.3018303,210,0.00010306873446097597
1740850863.1552024,211,0.00037396352854557335
1740850863.2548795,212,0.0008056728402152658
1740850863.3145442,213,0.00011977889516856521
1740850863.3740838,214,0.000408273161156103
1740850863.4322553,215,0.0004147214349359274
1740850863.4899879,216,0.0005002815159969032
1740850863.548499,217,0.0007460989290848374
1740850863.6051197,218,0.0004944644751958549
1740850863.663321,219,0.0004939200007356703
1740850863.7195492,220,0.0004652032512240112
1740850864.7167058,221,0.0003894797118846327
1740850864.9049206,222,0.0009082146571017802
1740850865.0804431,223,0.0003994096186943352
1740850865.2698705,224,0.00040437435382045805
1740850865.4576492,225,0.0002979605633299798
1740850865.6456594,226,5.742704524891451e-05
1740850865.8363817,227,0.0001760662707965821
1740850866.0241196,228,0.00032268790528178215
1740850866.217302,229,0.000292785931378603
1740850866.4117956,230,0.000767523655667901
1740850867.3814795,231,0.0003483888867776841
1740850867.5689504,232,9.618604235583916e-05
1740850867.7463455,233,0.00101577362511307
1740850867.9353218,234,0.00014190495130605996
1740850868.121491,235,0.00041362762567587197
1740850868.3108027,236,0.00014019761874806136
1740850868.500265,237,0.00033992869430221617
1740850868.687937,238,0.00012321886606514454
1740850868.8803828,239,0.0002115966781275347
1740850869.075464,240,0.00020029755251016468
1740850870.1210508,241,0.00014914118219166994
1740850870.3059635,242,0.0001216483287862502
1740850870.5017595,243,0.0005971362697891891
1740850870.691559,244,0.00017528953321743757
1740850870.8658147,245,0.00019756534311454743
1740850871.0321095,246,0.0003946383949369192
1740850871.2150598,247,0.0001242458529304713
1740850871.3963103,248,0.00016626632714178413
1740850871.573656,249,8.041201363084838e-05
1740850871.7514727,250,0.00010178243246627972
1740850872.7242212,251,0.00012610865815076977
1740850872.908974,252,0.0008186129271052778
1740850873.097955,253,0.00031143255182541907
1740850873.285878,254,0.0001254171074833721
1740850873.4750252,255,0.0004920867504552007
1740850873.6538258,256,0.00029121970874257386
1740850873.84812,257,0.00017410395957995206
1740850874.044804,258,0.0003966085787396878
1740850874.2259185,259,0.0001866621896624565
1740850874.4191267,260,0.00026397721376270056
1740850875.0913482,261,0.0001494208408985287
1740850875.2772443,262,0.0003133424906991422
1740850875.470297,263,9.127386874752119e-05
1740850875.6596353,264,0.00020666683849412948
1740850875.8446884,265,0.0003606580139603466
1740850876.0270796,266,0.0002847248106263578
1740850876.2033463,267,0.00020589154155459255
1740850876.3926582,268,0.0007799192680977285
1740850876.5721366,269,0.00022104060917627066
1740850876.7600372,270,0.0005410498124547303
1740850877.7621565,271,0.00041217816760763526
1740850877.912853,272,0.00027116364799439907
1740850878.1018305,273,7.946226105559617e-05
1740850878.2862575,274,7.763072790112346e-05
1740850878.475008,275,0.00020329395192675292
1740850878.6561928,276,0.00022359195281751454
1740850878.8419323,277,9.097786096390337e-05
1740850879.0280526,278,9.871310612652451e-05
1740850879.218298,279,0.00022031112166587263
1740850879.3996217,280,0.00039803405525162816
1740850880.343984,281,0.00018567618099041283
1740850880.5309656,282,0.0007720132707618177
1740850880.7130482,283,0.00018657591135706753
1740850880.8969326,284,0.0007488400442525744
1740850881.0866516,285,0.00011201307643204927
1740850881.269431,286,6.954627315280959e-05
1740850881.45948,287,0.0002253606216982007
1740850881.6457672,288,7.206512236734852e-05
1740850881.828333,289,0.00021354631462600082
1740850882.0038168,290,0.0005307954270392656
1740850882.9967341,291,5.178777428227477e-05
1740850883.1942964,292,0.00022448378149420023
1740850883.393181,293,0.00020795315504074097
1740850883.5632288,294,5.7661694881971925e-05
1740850883.7509918,295,0.00024996683350764215
1740850883.9405007,296,8.979988342616707e-05
1740850884.1285727,297,8.938800601754338e-05
1740850884.3154936,298,0.0001268218329641968
1740850884.4997973,299,0.00018455457757227123
1740850884.683978,300,0.00011855665070470423
1740850885.500119,301,9.29437082959339e-05
1740850885.6762483,302,7.437126623699442e-05
1740850885.8436518,303,0.00033439137041568756
1740850886.0266523,304,0.00022613807232119143
1740850886.1996312,305,0.0007484834641218185
1740850886.3759239,306,5.092645369586535e-05
1740850886.5600572,307,7.446295785484836e-05
1740850886.7330596,308,0.0001440186460968107
1740850886.9145856,309,9.977140871342272e-05
1740850887.1060913,310,9.190348646370694e-05
1740850888.16182,311,9.694404434412718e-05
1740850888.2184098,312,0.00017792209109757096
1740850888.2771566,313,5.133400554768741e-05
1740850888.3361256,314,0.00014987908070906997
1740850888.4789531,315,7.260885467985645e-05
1740850888.665553,316,0.0002710454573389143
1740850888.8322477,317,0.00017551719793118536
1740850889.0191233,318,7.559701043646783e-05
1740850889.0988765,319,0.00021115795243531466
1740850889.255376,320,9.513895929558203e-05
1740850890.0267997,321,0.0007687249453738332
1740850890.2089965,322,0.00035550774191506207
1740850890.3797133,323,0.0003787548339460045
1740850890.5654788,324,0.00011539468687260523
1740850890.7451427,325,0.00018686006660573184
1740850890.930971,326,0.000240425142692402
1740850891.1151788,327,0.00013614131603389978
1740850891.248052,328,8.445891580777243e-05
1740850891.438876,329,6.300213863141835e-05
1740850891.6283731,330,5.177777347853407e-05
1740850892.5624814,331,0.00019234912178944796
1740850892.7447202,332,0.000334302632836625
1740850892.9392085,333,0.00025452335830777884
1740850893.1099906,334,0.00023033439356368035
1740850893.2972126,335,0.00010228321480099112
1740850893.4783053,336,3.770236799027771e-05
1740850893.6706038,337,0.0003870423824992031
1740850893.8535619,338,0.00011895918578375131
1740850894.0388737,339,0.00011092867498518899
1740850894.2275054,340,0.00011708170495694503
1740850895.1236107,341,0.00017565123562235385
1740850895.1848443,342,7.207806629594415e-05
1740850895.2445648,343,0.00013626016152556986
1740850895.3004255,344,0.00013876652519684285
1740850895.358,345,0.0001272605441045016
1740850895.4136078,346,0.00030820505344308913
1740850895.4713478,347,0.000683995836880058
1740850895.5285964,348,0.00018365049618296325
1740850895.5858734,349,0.00021079233556520194
1740850895.6436574,350,0.00023039270308800042
1740850896.1612148,351,0.00022337387781590223
1740850896.2199311,352,6.0070055042160675e-05
1740850896.2764475,353,5.088433681521565e-05
1740850896.3346488,354,0.0002401732635917142
1740850896.391688,355,0.00036625770735554397
1740850896.4527242,356,0.00020230810332577676
1740850896.5098372,357,0.00029349836404435337
1740850896.5677888,358,9.765235154191032e-05
1740850896.6255088,359,9.53946728259325e-05
1740850896.6813738,360,0.00015748836449347436
1740850897.4438424,361,4.409169559949078e-05
1740850897.500348,362,0.0003478857106529176
1740850897.5571275,363,0.00010917476174654439
1740850897.6164773,364,5.411072925198823e-05
1740850897.6744857,365,5.43165260751266e-05
1740850897.7340252,366,4.654691292671487e-05
1740850897.7945964,367,7.678743713768199e-05
1740850897.8616312,368,8.933495701057836e-05
1740850897.9215696,369,3.624046075856313e-05
1740850897.9800153,370,0.00011855408956762403
1740850898.8162744,371,0.0002694943395908922
1740850899.0022175,372,0.00013336336996871978
1740850899.1930525,373,8.180901204468682e-05
1740850899.3836746,374,6.425207538995892e-05
1740850899.5719042,375,0.0002902686537709087
1740850899.7610428,376,0.0001262215373571962
1740850899.943882,377,0.0002069170295726508
1740850900.1126118,378,0.00017343949002679437
1740850900.2994003,379,0.00013643009879160672
1740850900.4901624,380,0.0002195189445046708
1740850901.5139048,381,0.0005242712795734406
1740850901.6172354,382,5.437410800368525e-05
1740850901.681084,383,0.00011477819498395547
1740850901.7742784,384,0.00010009044490288943
1740850901.8335,385,0.00014914719213265926
1740850901.891652,386,0.0008553345687687397
1740850901.9587836,387,7.056398317217827e-05
1740850902.016817,388,0.00013487251999322325
1740850902.074023,389,0.0001225893502123654
1740850902.1312678,390,4.42340096924454e-05
1740850902.8470476,391,0.00010854883294086903
1740850902.9049804,392,5.260356920189224e-05
1740850902.964895,393,0.0001916342444019392
1740850903.0226693,394,3.858291529468261e-05
1740850903.079555,395,4.823520066565834e-05
1740850903.1377466,396,0.00012142150808358565
1740850903.1952612,397,0.00020095815125387162
1740850903.253185,398,0.00021023004956077784
1740850903.310419,399,0.00012031935330014676
1740850903.3720312,400,8.450319728581235e-05
1740850904.2369044,401,0.00033830624306574464
1740850904.2948475,402,0.00017615572141949087
1740850904.3522644,403,0.0006031780503690243
1740850904.4100606,404,0.0002167174097849056
1740850904.466757,405,0.00016323645832017064
1740850904.5261366,406,9.669639257481322e-05
1740850904.5817516,407,0.00011929735046578571
1740850904.6400335,408,0.00038722483441233635
1740850904.696696,409,7.561042730230838e-05
1740850904.858132,410,5.577096089837141e-05
1740850905.7319882,411,8.496086957165971e-05
1740850905.7911594,412,0.00015415914822369814
1740850905.8481367,413,6.002924783388153e-05
1740850905.9059927,414,7.692089275224134e-05
1740850905.962186,415,0.00016877002781257033
1740850906.0206523,416,0.0003241385566070676
1740850906.0773838,417,0.00011496726074256003
1740850906.135008,418,7.301037840079516e-05
1740850906.193316,419,0.00021809812460560352
1740850906.2502446,420,4.647951209335588e-05
1740850907.1768284,421,0.00010307365300832316
1740850907.296975,422,9.561564365867525e-05
1740850907.3621483,423,6.565004150616005e-05
1740850907.4571028,424,0.00016473670257255435
1740850907.5134146,425,4.572499528876506e-05
1740850907.5721655,426,0.00019074857118539512
1740850907.6295657,427,5.50763143110089e-05
1740850907.6852973,428,4.543808972812258e-05
1740850907.742795,429,6.307212606770918e-05
1740850907.8031228,430,0.0001937790948431939
1740850908.755389,431,0.00022901366173755378
1740850908.8158824,432,7.713527156738564e-05
1740850908.872235,433,5.297926691127941e-05
1740850908.9310284,434,4.680403435486369e-05
1740850908.9877284,435,8.444249397143722e-05
1740850909.0444853,436,0.0002893144846893847
1740850909.1020358,437,0.0001958679931703955
1740850909.1599448,438,7.995660416781902e-05
1740850909.216367,439,0.0003977754386141896
1740850909.2741082,440,8.653619443066418e-05
1740850910.1569424,441,7.838942110538483e-05
1740850910.214944,442,0.0005775369354523718
1740850910.2737076,443,4.608185918186791e-05
1740850910.3300169,444,0.00010814482811838388
1740850910.3865745,445,4.860477565671317e-05
1740850910.445081,446,0.00043211362208239734
1740850910.5034142,447,0.0006539185997098684
1740850910.5600898,448,8.16034444142133e-05
1740850910.6207616,449,0.00014187236956786364
1740850910.7810771,450,0.00022665903088636696
1740850911.6424162,451,0.00040501734474673867
1740850911.6997032,452,9.446960757486522e-05
1740850911.7612882,453,6.641636718995869e-05
1740850911.81752,454,4.185031502856873e-05
1740850911.876087,455,0.0001613203639863059
1740850911.9409099,456,7.313418609555811e-05
1740850912.0643733,457,0.00014433231262955815
1740850912.1255765,458,0.00028084093355573714
1740850912.2834735,459,0.0010115677723661065
1740850912.45907,460,9.233144373865798e-05
1740850913.3521595,461,0.000255865539656952
1740850913.4108946,462,0.0004267127951607108
1740850913.4718945,463,0.0003742724657058716
1740850913.529081,464,0.0004966038977727294
1740850913.5868804,465,0.00012081349268555641
1740850913.642568,466,4.6879067667759955e-05
1740850913.6995559,467,4.089389767614193e-05
1740850913.7581265,468,8.844064723234624e-05
1740850913.8148773,469,4.975972478860058e-05
1740850913.87373,470,0.00026791615528054535
1740850914.7186058,471,7.040091441012919e-05
1740850914.7779465,472,0.00012067379429936409
1740850914.8337235,473,7.796374120516703e-05
1740850914.8955672,474,8.327796240337193e-05
1740850914.9522443,475,6.54832401778549e-05
1740850915.0104954,476,0.0006061277235858142
1740850915.0665026,477,6.91236782586202e-05
1740850915.1252723,478,0.00023058764054439962
1740850915.184134,479,0.00012107841757824644
1740850915.2621698,480,9.507576760370284e-05
1740850916.1983733,481,0.0002497880777809769
1740850916.3831146,482,0.0005447925650514662
1740850916.567165,483,7.7913144195918e-05
1740850916.6739976,484,6.098479570937343e-05
1740850916.7377267,485,0.0005162132438272238
1740850916.7951517,486,4.874590740655549e-05
1740850916.8528738,487,7.640325202373788e-05
1740850916.9109952,488,0.00010001532064052299
1740850916.9692068,489,0.00018262774392496794
1740850917.025124,490,5.703339775209315e-05
1740850917.9289355,491,3.4014166885754094e-05
1740850917.9853272,492,0.0001108890792238526
1740850918.0429273,493,0.0001566357386764139
1740850918.1046169,494,7.809768430888653e-05
1740850918.1619427,495,7.55193832446821e-05
1740850918.219671,496,7.157721847761422e-05
1740850918.2779567,497,0.00010914716403931379
1740850918.334487,498,0.00015685865946579725
1740850918.3928196,499,7.159231608966365e-05
