Wall time,Step,Value
1740851024.1698806,0,0.07192500680685043
1740851025.2317712,1,0.06706620752811432
1740851025.3936915,2,0.06597815454006195
1740851025.5782516,3,0.06526005268096924
1740851025.761688,4,0.06293545663356781
1740851025.9271703,5,0.05463707074522972
1740851026.1064963,6,0.04835791140794754
1740851026.2890658,7,0.04135756194591522
1740851026.473553,8,0.0326264351606369
1740851026.6516113,9,0.025613442063331604
1740851026.8362434,10,0.0170332882553339
1740851027.6963925,11,0.014976783655583858
1740851027.8862257,12,0.012788626365363598
1740851028.0557282,13,0.010507791303098202
1740851028.239147,14,0.00968211144208908
1740851028.417042,15,0.00958019308745861
1740851028.6084592,16,0.00913249421864748
1740851028.7995346,17,0.008521346375346184
1740851028.9864736,18,0.007857502438127995
1740851029.1720116,19,0.00533032463863492
1740851029.3644936,20,0.007302083075046539
1740851030.0649195,21,0.006680815480649471
1740851030.250177,22,0.00696645537391305
1740851030.4316463,23,0.007623074576258659
1740851030.617871,24,0.006711953319609165
1740851030.8047194,25,0.007563167717307806
1740851030.87477,26,0.005957888439297676
1740851030.9322944,27,0.005562939681112766
1740851030.9909544,28,0.004899876192212105
1740851031.0485678,29,0.004760183393955231
1740851031.1089954,30,0.004439316689968109
1740851031.8657572,31,0.003595697460696101
1740851032.039542,32,0.0041565666906535625
1740851032.2310455,33,0.0038334631826728582
1740851032.381298,34,0.0037047327496111393
1740851032.5432134,35,0.004535000305622816
1740851032.6111147,36,0.0033874507062137127
1740851032.6789725,37,0.0033387774601578712
1740851032.7427907,38,0.002934984629973769
1740851032.8029397,39,0.00569059606641531
1740851032.8619487,40,0.0038552754558622837
1740851033.5712934,41,0.003083597170189023
1740851033.7602189,42,0.004453272093087435
1740851033.8920245,43,0.005899366922676563
1740851033.9922526,44,0.0038496246561408043
1740851034.0559251,45,0.005954391323029995
1740851034.1203911,46,0.005864935927093029
1740851034.1828809,47,0.006860824767500162
1740851034.2543416,48,0.005724508315324783
1740851034.3847296,49,0.0034110909327864647
1740851034.5323122,50,0.002519296482205391
1740851035.8410892,51,0.003571833949536085
1740851035.9345534,52,0.003012577071785927
1740851035.9966624,53,0.002661164151504636
1740851036.0524359,54,0.002433501649647951
1740851036.1079621,55,0.0027626752853393555
1740851036.1641626,56,0.003062412142753601
1740851036.223207,57,0.0024592617992311716
1740851036.2800894,58,0.002073293551802635
1740851036.3382456,59,0.0018352277111262083
1740851036.4300523,60,0.0027340345550328493
1740851037.3323913,61,0.0025810664519667625
1740851037.3944223,62,0.0019084077794104815
1740851037.4559355,63,0.0021342625841498375
1740851037.5185637,64,0.0015944335609674454
1740851037.5780928,65,0.0019142962992191315
1740851037.6412168,66,0.001942991279065609
1740851037.7000947,67,0.002887104405090213
1740851037.7620971,68,0.0016481154598295689
1740851037.8307724,69,0.0019135086331516504
1740851037.8978853,70,0.002714194357395172
1740851038.8028398,71,0.0017209515208378434
1740851038.8588383,72,0.0022710920311510563
1740851038.9158008,73,0.0023440285585820675
1740851038.9723108,74,0.0017333569703623652
1740851039.0329802,75,0.0020447971764951944
1740851039.0961046,76,0.001866400009021163
1740851039.1521168,77,0.002137155970558524
1740851039.209906,78,0.0017395876348018646
1740851039.2669265,79,0.0018507279455661774
1740851039.3224678,80,0.0020206335466355085
1740851040.148757,81,0.0029867335688322783
1740851040.206722,82,0.0015032964292913675
1740851040.2646828,83,0.0014275365974754095
1740851040.3219512,84,0.0026003336533904076
1740851040.3805017,85,0.002677419688552618
1740851040.436775,86,0.002325921319425106
1740851040.4937508,87,0.0023626701440662146
1740851040.5569596,88,0.002343878149986267
1740851040.614003,89,0.001954863080754876
1740851040.6711564,90,0.0017903365660458803
1740851041.30285,91,0.002363851759582758
1740851041.3645394,92,0.0012246695114299655
1740851041.4216292,93,0.0016436477890238166
1740851041.4792612,94,0.0017094947397708893
1740851041.5371227,95,0.0013136813649907708
1740851041.5948324,96,0.002074700780212879
1740851041.6519082,97,0.0020431107841432095
1740851041.7099934,98,0.0015458959387615323
1740851041.765882,99,0.002190592233091593
1740851041.8224704,100,0.001393224112689495
1740851042.649628,101,0.001425047405064106
1740851042.7063804,102,0.0014855501940473914
1740851042.7650445,103,0.001089652650989592
1740851042.8226802,104,0.0018359743990004063
1740851042.8807933,105,0.002024421002715826
1740851042.9370127,106,0.001284622703678906
1740851042.995222,107,0.0010519645875319839
1740851043.052158,108,0.0016439738683402538
1740851043.1101902,109,0.0010410163085907698
1740851043.1669154,110,0.0009444979950785637
1740851043.9991028,111,0.0011939157266169786
1740851044.0561328,112,0.001324495067819953
1740851044.1141646,113,0.0015738296788185835
1740851044.172333,114,0.0016791393281891942
1740851044.229846,115,0.001072890474461019
1740851044.2865202,116,0.00126216362696141
1740851044.3433764,117,0.0009686301345936954
1740851044.4016113,118,0.0009992256527766585
1740851044.458141,119,0.0007364358170889318
1740851044.5170503,120,0.0010846805525943637
1740851045.1205525,121,0.0007069730199873447
1740851045.1765003,122,0.0008293344872072339
1740851045.233257,123,0.0009231182630173862
1740851045.2917004,124,0.002021106192842126
1740851045.3487031,125,0.0016378079308196902
1740851045.407215,126,0.0012090300442650914
1740851045.4643323,127,0.0019051387207582593
1740851045.521907,128,0.0013116963673382998
1740851045.5801387,129,0.0012998979073017836
1740851045.635578,130,0.001252579502761364
1740851046.4893177,131,0.0010883472859859467
1740851046.5461607,132,0.001133966026827693
1740851046.6045456,133,0.0012075451668351889
1740851046.660376,134,0.001036806614138186
1740851046.7183673,135,0.0013731102226302028
1740851046.7763274,136,0.001264913589693606
1740851046.833135,137,0.0018480762373656034
1740851046.890851,138,0.0012191074201837182
1740851046.9487462,139,0.0016788403736427426
1740851047.0072243,140,0.0014430555747821927
1740851047.8654218,141,0.0011644781334325671
1740851047.9253862,142,0.0008322390494868159
1740851047.9833708,143,0.0011800337815657258
1740851048.03987,144,0.0011085470905527472
1740851048.0973477,145,0.0007515495526604354
1740851048.1548119,146,0.0019725789315998554
1740851048.2126334,147,0.0013122707605361938
1740851048.270148,148,0.0018717235652729869
1740851048.3271298,149,0.0013437705347314477
1740851048.3839185,150,0.0016404276248067617
1740851048.9173827,151,0.0012032865779474378
1740851048.9747071,152,0.0010701523860916495
1740851049.0334518,153,0.0009600474731996655
1740851049.0898511,154,0.000749889004509896
1740851049.1464012,155,0.0014883684925734997
1740851049.2045133,156,0.0007921546348370612
1740851049.2604144,157,0.0006930356612429023
1740851049.319486,158,0.0006762753473594785
1740851049.3767877,159,0.0008240151219069958
1740851049.434275,160,0.0010200460674241185
1740851049.9737718,161,0.0007781620952300727
1740851050.0312252,162,0.00085080461576581
1740851050.0886507,163,0.0005949832848273218
1740851050.1459765,164,0.0009698743233457208
1740851050.2023177,165,0.0008536256500519812
1740851050.261788,166,0.0006265059346333146
1740851050.3182933,167,0.0010320659494027495
1740851050.3759322,168,0.0009890275541692972
1740851050.4323163,169,0.0008235679124481976
1740851050.488095,170,0.0007113805040717125
1740851051.0240657,171,0.001256753341294825
1740851051.0830126,172,0.0004964827676303685
1740851051.1404786,173,0.0005739938351325691
1740851051.1968775,174,0.0007013754220679402
1740851051.2553306,175,0.0008579737623222172
1740851051.3158946,176,0.0009115231223404408
1740851051.3738675,177,0.001217319630086422
1740851051.431406,178,0.0007749851210974157
1740851051.488205,179,0.0005124981980770826
1740851051.5484521,180,0.0010820331517606974
1740851052.2155275,181,0.0007455314043909311
1740851052.2719684,182,0.0007672181818634272
1740851052.3287096,183,0.0006415933021344244
1740851052.3864112,184,0.0006942632608115673
1740851052.4422686,185,0.0009646806283853948
1740851052.5021634,186,0.00048667480587027967
1740851052.557824,187,0.0008184716571122408
1740851052.6133687,188,0.0004841191694140434
1740851052.6692605,189,0.0008182656019926071
1740851052.7265186,190,0.0009246959234587848
1740851053.4071417,191,0.0006966036162339151
1740851053.4628034,192,0.0009708792786113918
1740851053.519317,193,0.0005333552253432572
1740851053.576578,194,0.000616108241956681
1740851053.634871,195,0.0008072680793702602
1740851053.6910772,196,0.0005556355463340878
1740851053.7492523,197,0.0006950106471776962
1740851053.807557,198,0.0007623661658726633
1740851053.8640726,199,0.0007195772486738861
1740851053.920769,200,0.0005366962868720293
1740851054.4520812,201,0.0006861170986667275
1740851054.5096262,202,0.0008305236115120351
1740851054.569146,203,0.0005018612719140947
1740851054.6250157,204,0.0006578321917913854
1740851054.682506,205,0.000529624754562974
1740851054.7399204,206,0.000650406873319298
1740851054.7971249,207,0.0008220704621635377
1740851054.854705,208,0.0005073169595561922
1740851054.9156334,209,0.0008427394786849618
1740851054.971394,210,0.0008742690552026033
1740851055.699855,211,0.0007554769399575889
1740851055.7563636,212,0.0009404098382219672
1740851055.8165805,213,0.0008544782758690417
1740851055.8741512,214,0.0005864213453605771
1740851055.932036,215,0.0007246362511068583
1740851055.9902642,216,0.0005841560778208077
1740851056.049645,217,0.0005449574091471732
1740851056.1064057,218,0.00036896721576340497
1740851056.163099,219,0.00041027937550097704
1740851056.2244756,220,0.00041900493670254946
1740851057.0221026,221,0.0006503670592792332
1740851057.0776312,222,0.00035687643685378134
1740851057.1356134,223,0.0009140729671344161
1740851057.191461,224,0.00033217263990081847
1740851057.250589,225,0.0006175782764330506
1740851057.310218,226,0.000417854986153543
1740851057.3692298,227,0.0005715742008760571
1740851057.4255028,228,0.0006699839723296463
1740851057.4835565,229,0.00046256091445684433
1740851057.5415654,230,0.0006441737641580403
1740851058.4655037,231,0.0003735581994988024
1740851058.6504807,232,0.0005201545427553356
1740851058.8389597,233,0.0006309683667495847
1740851059.0280805,234,0.0002398465439910069
1740851059.2167678,235,0.0006864899769425392
1740851059.3993459,236,0.0003201184154022485
1740851059.5800564,237,0.00043437437852844596
1740851059.7666426,238,0.0006842809962108731
1740851059.9482596,239,0.0005831862217746675
1740851060.1208441,240,0.000541376881301403
1740851061.186107,241,0.0006794654182158411
1740851061.3676076,242,0.0006127762026153505
1740851061.5646474,243,0.0003517018922138959
1740851061.75008,244,0.0005831602611579001
1740851061.822682,245,0.0007907692925073206
1740851061.8824286,246,0.0005017531220801175
1740851061.9406679,247,0.000621823244728148
1740851062.002782,248,0.0005266920779831707
1740851062.0603087,249,0.0005968171753920615
1740851062.1217587,250,0.0004543840477708727
1740851062.9969003,251,0.0006256873602978885
1740851063.1917198,252,0.0005252103437669575
1740851063.3831325,253,0.000406511127948761
1740851063.5644245,254,0.00044085498666390777
1740851063.7439046,255,0.0005607184139080346
1740851063.917641,256,0.000546262483112514
1740851064.1082225,257,0.00045156004489399493
1740851064.2884414,258,0.00014359841588884592
1740851064.4773293,259,0.00047197414096444845
1740851064.659384,260,0.00036337447818368673
1740851065.6810281,261,0.0005233508418314159
1740851065.7450747,262,0.0006894822581671178
1740851065.8049877,263,0.0008479537791572511
1740851065.8680966,264,0.0004108078428544104
1740851065.9295135,265,0.0007180566899478436
1740851065.9924815,266,0.0003577684983611107
1740851066.0519755,267,0.0006179959164001048
1740851066.1130345,268,0.0004986870335415006
1740851066.2714024,269,0.0005375438486225903
1740851066.470362,270,0.000330426701111719
1740851067.0879245,271,0.0004560737288556993
1740851067.14806,272,0.00048191112000495195
1740851067.204264,273,0.0006323488778434694
1740851067.262703,274,0.0006700740195810795
1740851067.3186395,275,0.000290287280222401
1740851067.484133,276,0.0007775207050144672
1740851067.6714923,277,0.0004109569126740098
1740851067.8663156,278,0.0006388995097950101
1740851068.0364714,279,0.0005558482371270657
1740851068.2365065,280,0.0007829096866771579
1740851069.2130566,281,0.0008280491456389427
1740851069.4038024,282,0.0004458291514310986
1740851069.5932074,283,0.0005195428966544569
1740851069.717385,284,0.0005928993923589587
1740851069.8769128,285,0.0004956015618517995
1740851069.9482865,286,0.0005081704584881663
1740851070.0117002,287,0.0008490310865454376
1740851070.0746522,288,0.000517908891197294
1740851070.1384633,289,0.0007751516532152891
1740851070.2515962,290,0.0006915895501151681
1740851071.205266,291,0.0003578344185370952
1740851071.2647824,292,0.0006014762911945581
1740851071.3234162,293,0.0006714867777191103
1740851071.3813136,294,0.0005212723626755178
1740851071.4389746,295,0.00041226809844374657
1740851071.4967563,296,0.0003179466293659061
1740851071.554971,297,0.0008861998794600368
1740851071.6130888,298,0.00048753194278106093
1740851071.6721087,299,0.0003876007394865155
1740851071.7294765,300,0.00042235333239659667
1740851072.6625068,301,0.00033494626404717565
1740851072.7278607,302,0.0005488491151481867
1740851072.788548,303,0.0005035858484916389
1740851072.8703084,304,0.0004212949424982071
1740851072.992076,305,0.0006546532385982573
1740851073.054244,306,0.0004976288764737546
1740851073.153132,307,0.0005924796569161117
1740851073.247489,308,0.0003972503182012588
1740851073.3701742,309,0.0005724822403863072
1740851073.4970345,310,0.00047731821541674435
1740851074.6996307,311,0.00021424429723992944
1740851074.8906722,312,0.0006451147492043674
1740851075.0792792,313,0.0004171650798525661
1740851075.2851615,314,0.0003608762926887721
1740851075.4758806,315,0.00039577027200721204
1740851075.676284,316,0.0005166924674995244
1740851075.869189,317,0.00044217761023901403
1740851075.9819283,318,0.000579203013330698
1740851076.0453014,319,0.0003776921657845378
1740851076.1026638,320,0.0005780154606327415
1740851076.9132109,321,0.0007211412885226309
1740851077.0001585,322,0.00028906919760629535
1740851077.065492,323,0.0003255772462580353
1740851077.1260617,324,0.0005584514583460987
1740851077.1866186,325,0.0004367082437966019
1740851077.2458372,326,0.0004866022209171206
1740851077.3058336,327,0.0006574610597454011
1740851077.3655765,328,0.00032788747921586037
1740851077.5254116,329,0.0013873857678845525
1740851077.718369,330,0.0009476806735619903
1740851078.6543684,331,0.00030616592266596854
1740851078.7300963,332,0.0004345540073700249
1740851078.7962868,333,0.000296807789709419
1740851078.856956,334,0.0012000967981293797
1740851078.9264097,335,0.0009811799973249435
1740851079.0916336,336,0.0004591665929183364
1740851079.273885,337,0.0006541994516737759
1740851079.4129558,338,0.0004521649098023772
1740851079.4801147,339,0.0008242757176049054
1740851079.589933,340,0.0011694198474287987
1740851080.6004844,341,0.0007188257877714932
1740851080.659344,342,0.0005608003702946007
1740851080.719975,343,0.0005265487125143409
1740851080.782067,344,0.00027142444741912186
1740851080.8729293,345,0.0005792098818346858
1740851080.9859798,346,0.00035280195879749954
1740851081.1672626,347,0.00035943128750659525
1740851081.3517652,348,0.0005688938545063138
1740851081.5165505,349,0.0005031516193412244
1740851081.5909984,350,0.0003948202938772738
1740851082.5057552,351,0.000337833451339975
1740851082.656581,352,0.0005931725609116256
1740851082.8502755,353,0.0008411880698986351
1740851083.028345,354,0.0006232138839550316
1740851083.2064989,355,0.0008564403979107738
1740851083.367716,356,0.000578222912736237
1740851083.536969,357,0.00046410004142671824
1740851083.694933,358,0.0005899630486965179
1740851083.8280346,359,0.0002384374529356137
1740851083.9937754,360,0.0006332002230919898
1740851084.824512,361,0.0009669310529716313
1740851084.9490225,362,0.0002505202719476074
1740851085.013658,363,0.0006186285754665732
1740851085.0847452,364,0.0004052844597026706
1740851085.1457944,365,0.0004423452483024448
1740851085.2865553,366,0.0007451936253346503
1740851085.4818752,367,0.0005798120982944965
1740851085.675918,368,0.0005990825011394918
1740851085.7707672,369,0.0003931492392439395
1740851085.8359263,370,0.00043475895654410124
1740851086.9573898,371,0.00042548764031380415
1740851087.049844,372,0.00043872694368474185
1740851087.1240566,373,0.0010489742271602154
1740851087.224294,374,0.0006168075487948954
1740851087.287044,375,0.0003358839312568307
1740851087.4175801,376,0.0003539971949066967
1740851087.604889,377,0.0004605410504154861
1740851087.792951,378,0.0004699713608715683
1740851087.9553242,379,0.0004935501492582262
1740851088.082013,380,0.0007930188439786434
1740851088.715205,381,0.00040982759674079716
1740851088.7731953,382,0.0004766251950059086
1740851088.8310921,383,0.000260709086433053
1740851088.8884618,384,0.0003505537169985473
1740851088.946381,385,0.00040600108332000673
1740851089.0069318,386,0.0005019177915528417
1740851089.0697105,387,0.0004440117918420583
1740851089.2045481,388,0.0005167811759747565
1740851089.3652508,389,0.0004189366882201284
1740851089.4550307,390,0.0004243563744239509
1740851090.4440646,391,0.00047905699466355145
1740851090.613075,392,0.0003539310419000685
1740851090.784727,393,0.0003840864810626954
1740851090.957333,394,0.0003931160899810493
1740851091.0242658,395,0.000420047203078866
1740851091.0859346,396,0.00022779071878176183
1740851091.149481,397,0.0003709249140229076
1740851091.2120962,398,0.00035561018739826977
1740851091.2747827,399,0.00024493192904628813
1740851091.3310823,400,0.0004997322685085237
1740851092.1579986,401,0.0003783301799558103
1740851092.3461235,402,0.0006120953476056457
1740851092.5328727,403,0.0004088768328074366
1740851092.7217808,404,0.0004755609552375972
1740851092.9026706,405,0.00039604035555385053
1740851093.0881279,406,0.00028984458185732365
1740851093.2800422,407,0.0003383789153303951
1740851093.4596648,408,0.00039018370443955064
1740851093.6430326,409,0.000201453993213363
1740851093.8252292,410,0.0003073873813264072
1740851094.7277563,411,0.00023784091172274202
1740851094.9113567,412,0.0004491783620323986
1740851095.0835247,413,0.0004432830901350826
1740851095.267992,414,0.0005731550045311451
1740851095.4537816,415,0.000477365858387202
1740851095.6412556,416,0.00016724024317227304
1740851095.808927,417,0.00041321307071484625
1740851095.9793882,418,0.0005089693586342037
1740851096.1698544,419,0.0006054337718524039
1740851096.360373,420,0.0005306881503202021
1740851097.3857083,421,0.000497475906740874
1740851097.5705848,422,0.0005451609613373876
1740851097.7486672,423,0.0005247588851489127
1740851097.82062,424,0.0006244801334105432
1740851097.8883348,425,0.000536920502781868
1740851097.9476197,426,0.0008048106101341546
1740851098.0069952,427,0.0006340523832477629
1740851098.065605,428,0.00038186649908311665
1740851098.1283343,429,0.00022880753385834396
1740851098.2008488,430,0.0005596392438746989
1740851099.0538583,431,0.0004244015144649893
1740851099.1166356,432,0.00041735018021427095
1740851099.1757648,433,0.0003540930338203907
1740851099.2374992,434,0.0005188530194573104
1740851099.2965727,435,0.000437715498264879
1740851099.3540423,436,0.00027941589360125363
1740851099.410825,437,0.0006044869078323245
1740851099.467985,438,0.0003573484718799591
1740851099.5366797,439,0.00048294547013938427
1740851099.5935705,440,0.0002059154794551432
1740851100.559439,441,0.0004816585860680789
1740851100.746007,442,0.0004954961477778852
1740851100.9296944,443,0.00010354571713833138
1740851101.0968554,444,0.0005633606342598796
1740851101.2903495,445,0.0006389185437001288
1740851101.3735259,446,0.0003993882273789495
1740851101.4346921,447,0.0003513972624205053
1740851101.490084,448,0.0006819434929639101
1740851101.5476224,449,0.00035639345878735185
1740851101.6045434,450,0.00041377247544005513
1740851102.2762017,451,0.0002540845307521522
1740851102.4178689,452,0.000810573750641197
1740851102.480266,453,0.0005425597191788256
1740851102.539022,454,0.0006000260473228991
1740851102.5971184,455,0.0007018450414761901
1740851102.6545696,456,0.0001866183738457039
1740851102.7141647,457,0.0004132965696044266
1740851102.7692926,458,0.00039930499042384326
1740851102.8306265,459,0.0003660963266156614
1740851102.8874736,460,0.0005768915871158242
1740851103.8091145,461,0.0002626496716402471
1740851103.994127,462,0.0004768088401760906
1740851104.152899,463,0.00043914327397942543
1740851104.217681,464,0.00043118768371641636
1740851104.280975,465,0.0007986343116499484
1740851104.4414465,466,0.00036929614725522697
1740851104.6121094,467,0.0002765039389487356
1740851104.7984817,468,0.0005271912086755037
1740851104.988519,469,0.000290018564555794
1740851105.158679,470,0.00036786976852454245
1740851106.171296,471,0.0005086887395009398
1740851106.368165,472,0.0005381728406064212
1740851106.5471952,473,0.00036138083669357
1740851106.6927545,474,0.000553965859580785
1740851106.8647785,475,0.00039549972279928625
1740851107.0551178,476,0.00042277370812371373
1740851107.2462,477,0.0007107125129550695
1740851107.415475,478,0.0003456460253801197
1740851107.60382,479,0.00043588338303379714
1740851107.787165,480,0.00040546548552811146
1740851108.8803468,481,0.000909467984456569
1740851109.0686493,482,0.00040300836553797126
1740851109.2653425,483,0.00045730420970357955
1740851109.4584656,484,0.0006595421582460403
1740851109.6583092,485,0.00027451306232251227
1740851109.8433738,486,0.0005473020719364285
1740851110.0304158,487,0.0005718021420761943
1740851110.2122133,488,0.00022897501185070723
1740851110.3902683,489,0.0009052634122781456
1740851110.5852437,490,0.0004326780035626143
1740851111.691326,491,0.0002661339531186968
1740851111.8875604,492,0.0002844841801561415
1740851112.0706244,493,0.00046512263361364603
1740851112.2426405,494,0.0006917102728039026
1740851112.4298072,495,0.00026426202384755015
1740851112.6182113,496,0.000261967332335189
1740851112.7920897,497,0.0005432239850051701
1740851112.9813795,498,0.00026490906020626426
1740851113.168982,499,0.000383209262508899
